Trace
Swept SA
A.16.09,N9010A
544 B25 B40 EXM FS1 MPB P44 RTL ,01
Segment,0
Number of Points,10000
Sweep Time,0.0093324
Start Frequency,0
Stop Frequency,100000
Average Count,50
Average Type,LogPower(Video)
RBW,470
RBW Filter,Gaussian
RBW Filter BW,3dB
VBW,4700
Sweep Type,Swept
X Axis Scale,Lin
PreAmp State,Off
PreAmp Band,Low
Trigger Source,Free
Trigger Level,1.2
Trigger Slope,Positive
Trigger Delay,0
Phase Noise Optimization,Narrow
Swept If Gain,Low
FFT If Gain,Autorange
RF Coupling,DC
FFT Width,411900
Ext Ref,10000000
Input,RF
RF Calibrator,Off
Attenuation,20
Ref Level Offset,0
External Gain,0
Trace Type,Maxhold
Detector,Peak
Trace Math,Off
Trace Math Oper1,Trace5
Trace Math Oper2,Trace6
Trace Math Offset,0
Normalize,Off
Trace Name,Trace1
X Axis Units,Hz
Y Axis Units,dBm
DATA
0,-2.00865125656128
10.00100010001,-2.05778622627258
20.00200020002,-2.11372828483582
30.00300030003,-2.17783904075623
40.00400040004,-2.24875688552856
50.00500050005,-2.32648205757141
60.00600060006,-2.41373705863953
70.00700070007,-2.50643801689148
80.00800080008,-2.60730743408203
90.00900090009,-2.71634531021118
100.0100010001,-2.83219051361084
110.01100110011,-2.85818123817444
120.01200120012,-2.79840135574341
130.01300130013,-2.7481517791748
140.01400140014,-2.71015501022339
150.01500150015,-2.68304967880249
160.01600160016,-2.66139006614685
170.01700170017,-2.64653754234314
180.01800180018,-2.63713097572327
190.01900190019,-2.63453149795532
200.0200020002,-2.63465476036072
210.02100210021,-2.63750100135803
220.02200220022,-2.64715433120728
230.02300230023,-2.66225337982178
240.02400240024,-2.68415975570679
250.02500250025,-2.71151185035706
260.02600260026,-2.744309425354
270.02700270027,-2.78391432762146
280.02800280028,-2.83032655715942
290.02900290029,-2.88218426704407
300.0300030003,-2.93948793411255
310.03100310031,-3.00359869003296
320.03200320032,-3.07315516471863
330.03300330033,-3.14951872825623
340.03400340034,-3.23132801055908
350.03500350035,-3.31858325004578
360.03600360036,-3.41264533996582
370.03700370037,-3.51079201698303
380.03800380038,-3.61574578285217
390.03900390039,-3.7247838973999
400.0400040004,-3.84062910079956
410.04100410041,-3.96192002296448
420.04200420042,-4.0872950553894
430.04300430043,-4.21947765350342
440.04400440044,-4.35574436187744
450.04500450045,-4.49881839752197
460.04600460046,-4.64733791351318
470.04700470047,-4.7999415397644
480.04800480048,-4.95935297012329
490.04900490049,-5.1242094039917
500.0500050005,-5.29315090179443
510.05100510051,-5.46889877319336
520.05200520052,-5.52756404876709
530.05300530053,-5.52088022232056
540.05400540054,-5.51419639587402
550.05500550055,-5.50751256942749
560.05600560056,-5.50219011306763
570.05700570057,-5.49686765670776
580.05800580058,-5.4915452003479
590.05900590059,-5.48758459091187
600.0600060006,-5.48362350463867
610.06100610061,-5.48238515853882
620.06200620062,-5.48387002944946
630.06300630063,-5.49352359771729
640.06400640064,-5.50998401641846
650.06500650065,-5.53597450256348
660.06600660066,-5.57013368606567
670.06700670067,-5.61382293701172
680.06800680068,-5.66568088531494
690.06900690069,-5.72570753097534
700.0700070007,-5.79390239715576
710.07100710071,-5.87162733078003
720.07200720072,-5.95752096176147
730.07300730073,-5.97534322738647
740.07400740074,-5.95912933349609
750.07500750075,-5.9551682472229
760.07600760076,-5.93350887298584
770.07700770077,-5.82063293457031
780.07800780078,-5.72273302078247
790.07900790079,-5.63572454452515
800.0800080008,-5.56096935272217
810.08100810081,-5.49710512161255
820.08200820082,-5.44549417495728
830.08300830083,-5.40477418899536
840.08400840084,-5.37494611740112
850.08500850085,-5.35737085342407
860.08600860086,-5.35204839706421
870.08700870087,-5.35217189788818
880.08800880088,-5.35365676879883
890.08900890089,-5.36330986022949
900.0900090009,-5.38657760620117
910.09100910091,-5.42209815979004
920.09200920092,-5.46987199783325
930.09300930093,-5.52989816665649
940.09400940094,-5.60353899002075
950.09500950095,-5.50291633605957
960.09600960096,-5.39412498474121
970.09700970097,-5.29622507095337
980.09800980098,-5.20921659469604
990.09900990099,-5.13309955596924
1000.100010001,-5.06923580169678
1010.10101010101,-5.01354026794434
1020.10201020102,-4.96873617172241
1030.10301030103,-4.93482398986816
1040.10401040104,-4.91180276870728
1050.10501050105,-4.89695024490356
1060.10601060106,-4.88890504837036
1070.10701070107,-4.88902854919434
1080.10801080108,-4.89323616027832
1090.10901090109,-4.90833520889282
1100.1100110011,-4.93296432495117
1110.11101110111,-4.96984624862671
1120.11201120112,-5.01625871658325
1130.11301130113,-5.07492351531982
1140.11401140114,-5.14447975158691
1150.11501150115,-5.22356653213501
1160.11601160116,-5.23866558074951
1170.11701170117,-5.13123559951782
1180.11801180118,-5.03469705581665
1190.11901190119,-4.94905042648315
1200.1200120012,-4.87565612792969
1210.12101210121,-4.8131537437439
1220.12201220122,-4.76018095016479
1230.12301230123,-4.71946144104004
1240.12401240124,-4.68827152252197
1250.12501250125,-4.66933488845825
1260.12601260126,-4.65992832183838
1270.12701270127,-4.66005182266235
1280.12801280128,-4.66289806365967
1290.12901290129,-4.67255115509033
1300.1300130013,-4.691734790802
1310.13101310131,-4.72180938720703
1320.13201320132,-4.76277589797974
1330.13301330133,-4.81463384628296
1340.13401340134,-4.87602138519287
1350.13501350135,-4.94966220855713
1360.13601360136,-5.0341944694519
1370.13701370137,-5.03023386001587
1380.13801380138,-4.92824935913086
1390.13901390139,-4.83715677261353
1400.1400140014,-4.75695562362671
1410.14101410141,-4.69036865234375
1420.14201420142,-4.63195037841797
1430.14301430143,-4.58442354202271
1440.14401440144,-4.54778814315796
1450.14501450145,-4.52068281173706
1460.14601460146,-4.50583028793335
1470.14701470147,-4.49914646148682
1480.14801480148,-4.49790859222412
1490.14901490149,-4.50075483322144
1500.1500150015,-4.51313066482544
1510.15101510151,-4.53639841079712
1520.15201520152,-4.57191944122314
1530.15301530153,-4.61697006225586
1540.15401540154,-4.67427349090576
1550.15501550155,-4.74110698699951
1560.15601560156,-4.82019376754761
1570.15701570157,-4.90881013870239
1580.15801580158,-4.87898206710815
1590.15901590159,-4.78108215332031
1600.1600160016,-4.69407367706299
1610.16101610161,-4.61931800842285
1620.16201620162,-4.55409240722656
1630.16301630163,-4.49975872039795
1640.16401640164,-4.45767736434937
1650.16501650165,-4.42512655258179
1660.16601660166,-4.40346670150757
1670.16701670167,-4.3940601348877
1680.16801680168,-4.392822265625
1690.16901690169,-4.39430665969849
1700.1700170017,-4.40123748779297
1710.17101710171,-4.41905927658081
1720.17201720172,-4.44777297973633
1730.17301730173,-4.48737764358521
1740.17401740174,-4.53787422180176
1750.17501750175,-4.59926176071167
1760.17601760176,-4.67154121398926
1770.17701770177,-4.75471210479736
1780.17801780178,-4.84877443313599
1790.17901790179,-4.75087451934814
1800.1800180018,-4.65978193283081
1810.18101810181,-4.57821893692017
1820.18201820182,-4.50890922546387
1830.18301830183,-4.44912958145142
1840.18401840184,-4.40024137496948
1850.18501850185,-4.36224460601807
1860.18601860186,-4.33513927459717
1870.18701870187,-4.31620264053345
1880.18801880188,-4.30679559707642
1890.18901890189,-4.30555772781372
1900.1900190019,-4.30704259872437
1910.19101910191,-4.31941890716553
1920.19201920192,-4.34132528305054
1930.19301930193,-4.37548446655273
1940.19401940194,-4.41917324066162
1950.19501950195,-4.47511577606201
1960.19601960196,-4.54194927215576
1970.19701970197,-4.61967420578003
1980.19801980198,-4.70829057693481
1990.19901990199,-4.76150989532471
2000.200020002,-4.6622486114502
2010.20102010201,-4.5738787651062
2020.20202020202,-4.49503898620605
2030.20302030203,-4.42981338500977
2040.20402040204,-4.37411832809448
2050.20502050205,-4.32931423187256
2060.20602060206,-4.29540157318115
2070.20702070207,-4.27101945877075
2080.20802080208,-4.25616693496704
2090.20902090209,-4.25084447860718
2100.2100210021,-4.25096797943115
2110.21102110211,-4.25653696060181
2120.21202120212,-4.27299737930298
2130.21302130213,-4.30034923553467
2140.21402140214,-4.33859300613403
2150.21502150215,-4.38772773742676
2160.21602160216,-4.44775438308716
2170.21702170217,-4.51867198944092
2180.21802180218,-4.60048151016235
2190.21902190219,-4.69318246841431
2200.2200220022,-4.65790843963623
2210.22102210221,-4.56409311294556
2220.22202220222,-4.48116874694824
2230.22302230223,-4.41185903549194
2240.22402240224,-4.35071802139282
2250.22502250225,-4.30046796798706
2260.22602260226,-4.26110982894897
2270.22702270227,-4.23264312744141
2280.22802280228,-4.21506786346436
2290.22902290229,-4.20838403701782
2300.2300230023,-4.2085075378418
2310.23102310231,-4.20999240875244
2320.23202320232,-4.21964550018311
2330.23302330233,-4.24019050598145
2340.23402340234,-4.2716269493103
2350.23502350235,-4.31395435333252
2360.23602360236,-4.36717367172241
2370.23702370237,-4.42992305755615
2380.23802380238,-4.50492525100708
2390.23902390239,-4.59081888198853
2400.2400240024,-4.68896532058716
2410.24102410241,-4.59106540679932
2420.24202420242,-4.50133419036865
2430.24302430243,-4.42249441146851
2440.24402440244,-4.35590744018555
2450.24502450245,-4.29885053634644
2460.24602460246,-4.252685546875
2470.24702470247,-4.21741151809692
2480.24802480248,-4.19302892684937
2490.24902490249,-4.17953777313232
2500.2500250025,-4.17557716369629
2510.25102510251,-4.17570018768311
2520.25202520252,-4.18399238586426
2530.25302530253,-4.19909143447876
2540.25402540254,-4.22508192062378
2550.25502550255,-4.26060247421265
2560.25602560256,-4.30837631225586
2570.25702570257,-4.36704111099243
2580.25802580258,-4.43659782409668
2590.25902590259,-4.51704549789429
2600.2600260026,-4.60838508605957
2610.26102610261,-4.6193995475769
2620.26202620262,-4.52286148071289
2630.26302630263,-4.43857574462891
2640.26402640264,-4.3651819229126
2650.26502650265,-4.30267906188965
2660.26602660266,-4.24970674514771
2670.26702670267,-4.20898675918579
2680.26802680268,-4.17915868759155
2690.26902690269,-4.15886068344116
2700.2700270027,-4.14536952972412
2710.27102710271,-4.1427698135376
2720.27202720272,-4.14425468444824
2730.27302730273,-4.15254688262939
2740.27402740274,-4.17173004150391
2750.27502750275,-4.20180511474609
2760.27602760276,-4.2427716255188
2770.27702770277,-4.29462909698486
2780.27802780278,-4.3573784828186
2790.27902790279,-4.43101930618286
2800.2800280028,-4.51555156707764
2810.28102810281,-4.61097526550293
2820.28202820282,-4.55255699157715
2830.28302830283,-4.46146440505981
2840.28402840284,-4.38126277923584
2850.28502850285,-4.31467628479004
2860.28602860286,-4.2562575340271
2870.28702870287,-4.20873069763184
2880.28802880288,-4.17209577560425
2890.28902890289,-4.14499044418335
2900.2900290029,-4.12605333328247
2910.29102910291,-4.1166467666626
2920.29202920292,-4.11677026748657
2930.29302930293,-4.11961650848389
2940.29402940294,-4.13199281692505
2950.29502950295,-4.1566219329834
2960.29602960296,-4.1907811164856
2970.29702970297,-4.23719310760498
2980.29802980298,-4.29449653625488
2990.29902990299,-4.36269187927246
3000.300030003,-4.4417781829834
3010.30103010301,-4.53175592422485
3020.30203020302,-4.58633661270142
3030.30303030303,-4.48843669891357
3040.30403040304,-4.40142869949341
3050.30503050305,-4.32803440093994
3060.30603060306,-4.26280879974365
3070.30703070307,-4.20847511291504
3080.30803080308,-4.16639375686646
3090.30903090309,-4.13384294509888
3100.3100310031,-4.11354446411133
3110.31103110311,-4.10005378723145
3120.31203120312,-4.09609270095825
3130.31303130313,-4.09621620178223
3140.31403140314,-4.10314655303955
3150.31503150315,-4.12096834182739
3160.31603160316,-4.14968204498291
3170.31703170317,-4.18928670883179
3180.31803180318,-4.23978328704834
3190.31903190319,-4.29980993270874
3200.3200320032,-4.37208890914917
3210.32103210321,-4.45525979995728
3220.32203220322,-4.54796075820923
3230.32303230323,-4.51949405670166
3240.32403240324,-4.4270396232605
3250.32503250325,-4.34547710418701
3260.32603260326,-4.27616739273071
3270.32703270327,-4.21638774871826
3280.32803280328,-4.16749954223633
3290.32903290329,-4.12950277328491
3300.3300330033,-4.10103559494019
3310.33103310331,-4.08482217788696
3320.33203320332,-4.0794997215271
3330.33303330333,-4.07962274551392
3340.33403340334,-4.08519220352173
3350.33503350335,-4.09620666503906
3360.33603360336,-4.11811304092407
3370.33703370337,-4.1509108543396
3380.33803380338,-4.19460010528564
3390.33903390339,-4.24918079376221
3400.3400340034,-4.31465291976929
3410.34103410341,-4.39237785339355
3420.34203420342,-4.47963285446167
3430.34303430343,-4.57641839981079
3440.34403440344,-4.47715711593628
3450.34503450345,-4.38742542266846
3460.34603460346,-4.30994749069214
3470.34703470347,-4.24472188949585
3480.34803480348,-4.18902635574341
3490.34903490349,-4.14558362960815
3500.3500350035,-4.10894823074341
3510.35103510351,-4.08184289932251
3520.35203520352,-4.06562948226929
3530.35303530353,-4.06030702590942
3540.35403540354,-4.06043004989624
3550.35503550355,-4.06599950790405
3560.35603560356,-4.08245992660522
3570.35703570357,-4.10981178283691
3580.35803580358,-4.14805555343628
3590.35903590359,-4.197190284729
3600.3600360036,-4.2572169303894
3610.36103610361,-4.32677316665649
3620.36203620362,-4.40858268737793
3630.36303630363,-4.50128316879272
3640.36403640364,-4.50549125671387
3650.36503650365,-4.41167545318604
3660.36603660366,-4.32875156402588
3670.36703670367,-4.25535726547241
3680.36803680368,-4.19557762145996
3690.36903690369,-4.14532804489136
3700.3700370037,-4.10596942901611
3710.37103710371,-4.07750272750854
3720.37203720372,-4.05856609344482
3730.37303730373,-4.05188226699829
3740.37403740374,-4.05200576782227
3750.37503750375,-4.05485200881958
3760.37603760376,-4.06995105743408
3770.37703770377,-4.09458017349243
3780.37803780378,-4.12737798690796
3790.37903790379,-4.16970586776733
3800.3800380038,-4.22292518615723
3810.38103810381,-4.28703546524048
3820.38203820382,-4.36203765869141
3830.38303830383,-4.44793176651001
3840.38403840384,-4.54471683502197
3850.38503850385,-4.48629856109619
3860.38603860386,-4.39384412765503
3870.38703870387,-4.31228160858154
3880.38803880388,-4.24297189712524
3890.38903890389,-4.18319225311279
3900.3900390039,-4.13294219970703
3910.39103910391,-4.09358406066895
3920.39203920392,-4.06375598907471
3930.39303930393,-4.04618072509766
3940.39403940394,-4.03949689865112
3950.39503950395,-4.0396203994751
3960.39603960396,-4.04382801055908
3970.39703970397,-4.05892705917358
3980.39803980398,-4.08355617523193
3990.39903990399,-4.12043809890747
4000.400040004,-4.16821146011353
4010.40104010401,-4.22687673568726
4020.40204020402,-4.29643297195435
4030.40304030403,-4.37688112258911
4040.40404040404,-4.46822023391724
4050.40504050405,-4.54322242736816
4060.40604060406,-4.44259977340698
4070.40704070407,-4.35422992706299
4080.40804080408,-4.27811288833618
4090.40904090409,-4.21016454696655
4100.4100410041,-4.15446949005127
4110.41104110411,-4.10830402374268
4120.41204120412,-4.0730299949646
4130.41304130413,-4.05000877380371
4140.41404140414,-4.03651809692383
4150.41504150415,-4.0339183807373
4160.41604160416,-4.03404188156128
4170.41704170417,-4.04233360290527
4180.41804180418,-4.06151723861694
4190.41904190419,-4.09159231185913
4200.4200420042,-4.13255834579468
4210.42104210421,-4.1844162940979
4220.42204220422,-4.24580430984497
4230.42304230423,-4.31944465637207
4240.42404240424,-4.40397691726685
4250.42504250425,-4.49803924560547
4260.42604260426,-4.48046398162842
4270.42704270427,-4.38528728485107
4280.42804280428,-4.30236291885376
4290.42904290429,-4.22896909713745
4300.4300430043,-4.16918897628784
4310.43104310431,-4.11893939971924
4320.43204320432,-4.07958126068115
4330.43304330433,-4.05111455917358
4340.43404340434,-4.03353929519653
4350.43504350435,-4.02685546875
4360.43604360436,-4.02697849273682
4370.43704370437,-4.02982473373413
4380.43804380438,-4.04220104217529
4390.43904390439,-4.06683015823364
4400.4400440044,-4.10235071182251
4410.44104410441,-4.14740180969238
4420.44204420442,-4.20470523834229
4430.44304430443,-4.27290010452271
4440.44404440444,-4.3519868850708
4450.44504450445,-4.44196462631226
4460.44604460446,-4.53330421447754
4470.44704470447,-4.4326810836792
4480.44804480448,-4.34294986724854
4490.44904490449,-4.26683330535889
4500.4500450045,-4.19888496398926
4510.45104510451,-4.14182806015015
4520.45204520452,-4.09566259384155
4530.45304530453,-4.06038856506348
4540.45404540454,-4.03600597381592
4550.45504550455,-4.02251529693604
4560.45604560456,-4.01991558074951
4570.45704570457,-4.02003908157349
4580.45804580458,-4.02833080291748
4590.45904590459,-4.04751443862915
4600.4600460046,-4.07758903503418
4610.46104610461,-4.11855554580688
4620.46204620462,-4.16905212402344
4630.46304630463,-4.23180103302002
4640.46404640464,-4.30544185638428
4650.46504650465,-4.38861274719238
4660.46604660466,-4.48403644561768
4670.46704670467,-4.490966796875
4680.46804680468,-4.39579010009766
4690.46904690469,-4.310142993927
4700.4700470047,-4.23674917221069
4710.47104710471,-4.17288494110107
4720.47204720472,-4.1212739944458
4730.47304730473,-4.07919263839722
4740.47404740474,-4.04664182662964
4750.47504750475,-4.02634334564209
4760.47604760476,-4.01557540893555
4770.47704770477,-4.01433706283569
4780.47804780478,-4.01582193374634
4790.47904790479,-4.0281982421875
4800.4800480048,-4.05010461807251
4810.48104810481,-4.08290243148804
4820.48204820482,-4.12659168243408
4830.48304830483,-4.18117237091064
4840.48404840484,-4.24800586700439
4850.48504850485,-4.32436943054199
4860.48604860486,-4.41298580169678
4870.48704870487,-4.51249408721924
4880.48804880488,-4.4377384185791
4890.48904890489,-4.34664583206177
4900.4900490049,-4.26644468307495
4910.49104910491,-4.19849634170532
4920.49204920492,-4.14143943786621
4930.49304930493,-4.09391260147095
4940.49404940494,-4.0572772026062
4950.49504950495,-4.03153324127197
4960.49604960496,-4.01668071746826
4970.49704970497,-4.01271963119507
4980.49804980498,-4.01284313201904
4990.49904990499,-4.01977348327637
5000.500050005,-4.03759574890137
5010.50105010501,-4.06630897521973
5020.50205020502,-4.10455274581909
5030.50305030503,-4.15368747711182
5040.50405040504,-4.21371412277222
5050.50505050505,-4.28463172912598
5060.50605060506,-4.36644124984741
5070.50705070507,-4.45914220809937
5080.50805080508,-4.49330139160156
5090.50905090509,-4.39540147781372
5100.5100510051,-4.30975437164307
5110.51105110511,-4.23363733291626
5120.51205120512,-4.1697735786438
5130.51305130513,-4.11407804489136
5140.51405140514,-4.06927394866943
5150.51505150515,-4.03672313690186
5160.51605160516,-4.01370191574097
5170.51705170517,-4.00157260894775
5180.51805180518,-3.99897289276123
5190.51905190519,-4.00045776367188
5200.5200520052,-4.01011085510254
5210.52105210521,-4.03065586090088
5220.52205220522,-4.06209230422974
5230.52305230523,-4.10442018508911
5240.52405240524,-4.157639503479
5250.52505250525,-4.22174978256226
5260.52605260526,-4.29539060592651
5270.52705270527,-4.38128423690796
5280.52805280528,-4.47806978225708
5290.52905290529,-4.43734979629517
5300.5300530053,-4.34489583969116
5310.53105310531,-4.26333332061768
5320.53205320532,-4.19402313232422
5330.53305330533,-4.13424348831177
5340.53405340534,-4.08535528182983
5350.53505350535,-4.04871988296509
5360.53605360536,-4.01889181137085
5370.53705370537,-4.0013165473938
5380.53805380538,-3.99463272094727
