Trace
Swept SA
A.16.09,N9010A
544 B25 B40 EXM FS1 MPB P44 RTL ,01
Segment,0
Number of Points,10000
Sweep Time,0.0053328
Start Frequency,0
Stop Frequency,100000
Average Count,50
Average Type,LogPower(Video)
RBW,620
RBW Filter,Gaussian
RBW Filter BW,3dB
VBW,6200
Sweep Type,Swept
X Axis Scale,Lin
PreAmp State,Off
PreAmp Band,Low
Trigger Source,Free
Trigger Level,1.2
Trigger Slope,Positive
Trigger Delay,0
Phase Noise Optimization,Narrow
Swept If Gain,Low
FFT If Gain,Autorange
RF Coupling,DC
FFT Width,411900
Ext Ref,10000000
Input,RF
RF Calibrator,Off
Attenuation,40
Ref Level Offset,0
External Gain,0
Trace Type,Maxhold
Detector,Peak
Trace Math,Off
Trace Math Oper1,Trace5
Trace Math Oper2,Trace6
Trace Math Offset,0
Normalize,Off
Trace Name,Trace1
X Axis Units,Hz
Y Axis Units,dBm
DATA
0,15.6175785064697
10.00100010001,15.6055335998535
20.00200020002,15.5875272750854
30.00300030003,15.5635604858398
40.00400040004,15.5336332321167
50.00500050005,15.4965524673462
60.00600060006,15.4678173065186
70.00700070007,15.4343128204346
80.00800080008,15.3960399627686
90.00900090009,15.351806640625
100.0100010001,15.3016119003296
110.01100110011,15.2454566955566
120.01200120012,15.1833410263062
130.01300130013,15.1140718460083
140.01400140014,15.0400342941284
150.01500150015,14.9600353240967
160.01600160016,14.8728837966919
170.01700170017,14.7809638977051
180.01800180018,14.6830825805664
190.01900190019,14.5780477523804
200.0200020002,14.4682455062866
210.02100210021,14.3512897491455
220.02200220022,14.229564666748
230.02300230023,14.1006870269775
240.02400240024,13.967041015625
250.02500250025,13.8262414932251
260.02600260026,13.6806735992432
270.02700270027,13.5279531478882
280.02800280028,13.3704633712769
290.02900290029,13.2058210372925
300.0300030003,13.0364093780518
310.03100310031,12.862229347229
320.03200320032,12.6832809448242
330.03300330033,12.4983711242676
340.03400340034,12.3075008392334
350.03500350035,12.1130542755127
360.03600360036,11.9114542007446
370.03700370037,11.7062788009644
380.03800380038,11.4951410293579
390.03900390039,11.2792348861694
400.0400040004,11.0573682785034
410.04100410041,10.8307332992554
420.04200420042,10.5981369018555
430.04300430043,10.3607721328735
440.04400440044,10.1186389923096
450.04500450045,9.87054443359375
460.04600460046,9.6176815032959
470.04700470047,9.35885715484619
480.04800480048,9.09645652770996
490.04900490049,8.82690334320068
500.0500050005,8.55258178710938
510.05100510051,8.27349090576172
520.05200520052,7.98963117599487
530.05300530053,7.69981098175049
540.05400540054,7.43144941329956
550.05500550055,7.17262554168701
560.05600560056,6.91022539138794
570.05700570057,6.64782476425171
580.05800580058,6.38184785842896
590.05900590059,6.11467885971069
600.0600060006,5.84512519836426
610.06100610061,5.57318782806396
620.06200620062,5.30005788803101
630.06300630063,5.02454328536987
640.06400640064,4.74664497375488
650.06500650065,4.46636199951172
660.06600660066,4.18607902526855
670.06700670067,3.90818047523499
680.06800680068,3.63385820388794
690.06900690069,3.36430478096008
700.0700070007,3.09952020645142
710.07100710071,2.83711957931519
720.07200720072,2.57948803901672
730.07300730073,2.32543277740479
740.07400740074,2.07614612579346
750.07500750075,1.83043611049652
760.07600760076,1.5883024930954
770.07700770077,1.35093772411346
780.07800780078,1.11714935302734
790.07900790079,0.886937439441681
800.0800080008,0.660302102565765
810.08100810081,0.438435405492783
820.08200820082,0.220145210623741
830.08300830083,0.00662370817735791
840.08400840084,-0.203321292996407
850.08500850085,-0.409689784049988
860.08600860086,-0.612481772899628
870.08700870087,-0.810505092144012
880.08800880088,-1.00495195388794
890.08900890089,-1.19582223892212
900.0900090009,-1.3819237947464
910.09100910091,-1.56444895267487
920.09200920092,-1.74578189849854
930.09300930093,-1.9271148443222
940.09400940094,-2.10606360435486
950.09500950095,-2.28620433807373
960.09600960096,-2.46396064758301
970.09700970097,-2.64171719551086
980.09800980098,-2.81828141212463
990.09900990099,-2.9948456287384
1000.100010001,-3.17021775245667
1010.10101010101,-3.34439778327942
1020.10201020102,-3.46016144752502
1030.10301030103,-3.53419923782349
1040.10401040104,-3.60823702812195
1050.10501050105,-3.6834671497345
1060.10601060106,-3.75869703292847
1070.10701070107,-3.83631134033203
1080.10801080108,-3.91273331642151
1090.10901090109,-3.99034762382507
1100.1100110011,-4.06915426254272
1110.11101110111,-4.1479606628418
1120.11201120112,-4.22795915603638
1130.11301130113,-4.30795812606812
1140.11401140114,-4.35338354110718
1150.11501150115,-4.37019729614258
1160.11601160116,-4.37747383117676
1170.11701170117,-4.38474988937378
1180.11801180118,-4.39441061019897
1190.11901190119,-4.40526342391968
1200.1200120012,-4.41850090026855
1210.12101210121,-4.43173789978027
1220.12201220122,-4.44616746902466
1230.12301230123,-4.46298122406006
1240.12401240124,-4.47979497909546
1250.12501250125,-4.49899291992188
1260.12601260126,-4.5193829536438
1270.12701270127,-4.54096555709839
1280.12801280128,-4.56373977661133
1290.12901290129,-4.58770656585693
1300.1300130013,-4.61644220352173
1310.13101310131,-4.65113830566406
1320.13201320132,-4.66437530517578
1330.13301330133,-4.66092252731323
1340.13401340134,-4.61335897445679
1350.13501350135,-4.57175636291504
1360.13601360136,-4.538498878479
1370.13701370137,-4.51120233535767
1380.13801380138,-4.48867464065552
1390.13901390139,-4.47449207305908
1400.1400140014,-4.46507787704468
1410.14101410141,-4.46281719207764
1420.14201420142,-4.46294021606445
1430.14301430143,-4.46783256530762
1440.14401440144,-4.46676349639893
1450.14501450145,-4.4609260559082
1460.14601460146,-4.46104955673218
1470.14701470147,-4.46236515045166
1480.14801480148,-4.47083330154419
1490.14901490149,-4.48526287078857
1500.1500150015,-4.5056529045105
1510.15101510151,-4.48908615112305
1520.15201520152,-4.46178960800171
1530.15301530153,-4.44164609909058
1540.15401540154,-4.42746305465698
1550.15501550155,-4.39778232574463
1560.15601560156,-4.36810159683228
1570.15701570157,-4.34557390213013
1580.15801580158,-4.32781457901001
1590.15901590159,-4.3172082901001
1600.1600160016,-4.31256294250488
1610.16101610161,-4.31268644332886
1620.16201620162,-4.31519412994385
1630.16301630163,-4.32366275787354
1640.16401640164,-4.33928394317627
1650.16501650165,-4.35967445373535
1660.16601660166,-4.38721752166748
1670.16701670167,-4.37065029144287
1680.16801680168,-4.34812259674072
1690.16901690169,-4.33274793624878
1700.1700170017,-4.32452583312988
1710.17101710171,-4.32107305526733
1720.17201720172,-4.32119607925415
1730.17301730173,-4.32608795166016
1740.17401740174,-4.33574867248535
1750.17501750175,-4.35256242752075
1760.17601760176,-4.35864686965942
1770.17701770177,-4.35996246337891
1780.17801780178,-4.36843061447144
1790.17901790179,-4.38166809082031
1800.1800180018,-4.35437154769897
1810.18101810181,-4.32111406326294
1820.18201820182,-4.2938175201416
1830.18301830183,-4.27248191833496
1840.18401840184,-4.25710725784302
1850.18501850185,-4.24769306182861
1860.18601860186,-4.24543190002441
1870.18701870187,-4.24555540084839
1880.18801880188,-4.25044727325439
1890.18901890189,-4.2613000869751
1900.1900190019,-4.25427055358887
1910.19101910191,-4.25320196151733
1920.19201920192,-4.25451707839966
1930.19301930193,-4.26060152053833
1940.19401940194,-4.27383852005005
1950.19501950195,-4.29184436798096
1960.19601960196,-4.30031299591064
1970.19701970197,-4.2718243598938
1980.19801980198,-4.24929666519165
1990.19901990199,-4.23272943496704
2000.200020002,-4.22331571578979
2010.20102010201,-4.21986246109009
2020.20202020202,-4.2199854850769
2030.20302030203,-4.22368574142456
2040.20402040204,-4.23334646224976
2050.20502050205,-4.24896764755249
2060.20602060206,-4.25266742706299
2070.20702070207,-4.25517511367798
2080.20802080208,-4.26364374160767
2090.20902090209,-4.27807331085205
2100.2100210021,-4.24123954772949
2110.21102110211,-4.20798206329346
2120.21202120212,-4.17949342727661
2130.21302130213,-4.1569652557373
2140.21402140214,-4.14039850234985
2150.21502150215,-4.13098430633545
2160.21602160216,-4.12633895874023
2170.21702170217,-4.12646245956421
2180.21802180218,-4.13016223907471
2190.21902190219,-4.1326699256897
2200.2200220022,-4.12683248519897
2210.22102210221,-4.12695598602295
2220.22202220222,-4.12827110290527
2230.22302230223,-4.13554763793945
2240.22402240224,-4.14997720718384
2250.22502250225,-4.17036724090576
2260.22602260226,-4.14545488357544
2270.22702270227,-4.11577415466309
2280.22802280228,-4.09086179733276
2290.22902290229,-4.0731029510498
2300.2300230023,-4.06130456924438
2310.23102310231,-4.05546712875366
2320.23202320232,-4.05439805984497
2330.23302330233,-4.05571365356445
2340.23402340234,-4.06418228149414
2350.23502350235,-4.07741928100586
2360.23602360236,-4.09304094314575
2370.23702370237,-4.09435653686523
2380.23802380238,-4.10163259506226
2390.23902390239,-4.11487007141113
2400.2400240024,-4.13406801223755
2410.24102410241,-4.12346172332764
2420.24202420242,-4.09378099441528
2430.24302430243,-4.07125329971313
2440.24402440244,-4.05468606948853
2450.24502450245,-4.04407978057861
2460.24602460246,-4.04062700271606
2470.24702470247,-4.03955793380737
2480.24802480248,-4.04325771331787
2490.24902490249,-4.05172634124756
2500.2500250025,-4.06734800338745
2510.25102510251,-4.06866359710693
2520.25202520252,-4.06997871398926
2530.25302530253,-4.07606315612793
2540.25402540254,-4.08810806274414
2550.25502550255,-4.10611391067505
2560.25602560256,-4.13008069992065
2570.25702570257,-4.12424325942993
2580.25802580258,-4.10052299499512
2590.25902590259,-4.08157205581665
2600.2600260026,-4.06977367401123
2610.26102610261,-4.06393623352051
2620.26202620262,-4.06286716461182
2630.26302630263,-4.05702972412109
2640.26402640264,-4.04284715652466
2650.26502650265,-4.03343296051025
2660.26602660266,-4.03117227554321
2670.26702670267,-4.03129529953003
2680.26802680268,-4.03618717193604
2690.26902690269,-4.0470404624939
2700.2700270027,-4.0650463104248
2710.27102710271,-4.08782052993774
2720.27202720272,-4.11774826049805
2730.27302730273,-4.09283590316772
2740.27402740274,-4.0738844871521
2750.27502750275,-4.06089401245117
2760.27602760276,-4.03359746932983
2770.27702770277,-4.00749349594116
2780.27802780278,-3.98734974861145
2790.27902790279,-3.97435927391052
2800.2800280028,-3.96613740921021
2810.28102810281,-3.96506857872009
2820.28202820282,-3.96519207954407
2830.28302830283,-3.97127604484558
2840.28402840284,-3.98332118988037
2850.28502850285,-4.00132703781128
2860.28602860286,-4.02648591995239
2870.28702870287,-4.0564136505127
2880.28802880288,-4.04103851318359
2890.28902890289,-4.02089500427246
2900.2900290029,-4.00790452957153
2910.29102910291,-4.0008749961853
2920.29202920292,-3.99861407279968
2930.29302930293,-3.99992942810059
2940.29402940294,-4.00601387023926
2950.29502950295,-4.01805877685547
2960.29602960296,-4.03606462478638
2970.29702970297,-4.06122350692749
2980.29802980298,-4.0923433303833
2990.29902990299,-4.10438823699951
3000.300030003,-4.09497404098511
3010.30103010301,-4.05694818496704
3020.30203020302,-4.02607536315918
3030.30303030303,-3.99997067451477
3040.30403040304,-3.97982716560364
3050.30503050305,-3.96683669090271
3060.30603060306,-3.95980715751648
3070.30703070307,-3.95873832702637
3080.30803080308,-3.95886158943176
3090.30903090309,-3.96494579315186
3100.3100310031,-3.97699093818665
3110.31103110311,-3.97830629348755
3120.31203120312,-3.97842979431152
3130.31303130313,-3.98332166671753
3140.31403140314,-3.99417448043823
3150.31503150315,-4.00979614257813
3160.31603160316,-4.03376293182373
3170.31703170317,-4.01600360870361
3180.31803180318,-3.98989939689636
3190.31903190319,-3.97094798088074
3200.3200320032,-3.95795750617981
3210.32103210321,-3.95211982727051
3220.32203220322,-3.9510509967804
3230.32303230323,-3.95236659049988
3240.32403240324,-3.95964288711548
3250.32503250325,-3.95142102241516
3260.32603260326,-3.94796800613403
3270.32703270327,-3.94809126853943
3280.32803280328,-3.95179128646851
3290.32903290329,-3.96264410018921
3300.3300330033,-3.97945785522461
3310.33103310331,-4.00223207473755
3320.33203320332,-4.03096771240234
3330.33303330333,-4.02274608612061
3340.33403340334,-4.00260210037231
3350.33503350335,-3.98961186408997
3360.33603360336,-3.98138999938965
3370.33703370337,-3.98032116889954
3380.33803380338,-3.98163676261902
3390.33903390339,-3.98772096633911
3400.3400340034,-3.99261283874512
3410.34103410341,-3.9879674911499
3420.34203420342,-3.98809099197388
3430.34303430343,-3.98940634727478
3440.34403440344,-3.99906706809998
3450.34503450345,-4.01349639892578
3460.34603460346,-3.98739218711853
3470.34703470347,-3.95532703399658
3480.34803480348,-3.92922258377075
3490.34903490349,-3.90907907485962
3500.3500350035,-3.8948962688446
3510.35103510351,-3.88786673545837
3520.35203520352,-3.88560581207275
3530.35303530353,-3.88572907447815
3540.35403540354,-3.89181327819824
3550.35503550355,-3.90266609191895
3560.35603560356,-3.92067193984985
3570.35703570357,-3.93510127067566
3580.35803580358,-3.93880128860474
3590.35903590359,-3.94846177101135
3600.3600360036,-3.96408343315125
3610.36103610361,-3.98566579818726
3620.36203620362,-4.01440095901489
3630.36303630363,-4.02883052825928
3640.36403640364,-4.00749492645264
3650.36503650365,-3.99331212043762
3660.36603660366,-3.9838981628418
3670.36703670367,-3.98163723945618
3680.36803680368,-3.96507024765015
3690.36903690369,-3.94969534873962
3700.3700370037,-3.9402813911438
3710.37103710371,-3.93563604354858
3720.37203720372,-3.93575930595398
3730.37303730373,-3.93945932388306
3740.37403740374,-3.94911980628967
3750.37503750375,-3.96474146842957
3760.37603760376,-3.98751592636108
3770.37703770377,-4.00790596008301
3780.37803780378,-3.98180174827576
3790.37903790379,-3.96285057067871
3800.3800380038,-3.94986009597778
3810.38103810381,-3.94283032417297
3820.38203820382,-3.94176149368286
3830.38303830383,-3.94188475608826
3840.38403840384,-3.94796895980835
3850.38503850385,-3.96120619773865
3860.38603860386,-3.96729040145874
3870.38703870387,-3.96383714675903
3880.38803880388,-3.96396064758301
3890.38903890389,-3.96766042709351
3900.3900390039,-3.9773211479187
3910.39103910391,-3.9941349029541
3920.39203920392,-4.01571702957153
3930.39303930393,-4.01822471618652
3940.39403940394,-3.99450492858887
3950.39503950395,-3.97913002967834
3960.39603960396,-3.96852397918701
3970.39703970397,-3.9650707244873
3980.39803980398,-3.9651939868927
3990.39903990399,-3.96770167350769
4000.400040004,-3.97736239433289
4010.40104010401,-3.97748589515686
4020.40204020402,-3.97284054756165
4030.40304030403,-3.97296380996704
4040.40404040404,-3.97666358947754
4050.40504050405,-3.98632431030273
4060.40604060406,-4.00194597244263
4070.40704070407,-4.01875972747803
4080.40804080408,-3.98907876014709
4090.40904090409,-3.96655082702637
4100.4100410041,-3.94998383522034
4110.41104110411,-3.939377784729
4120.41204120412,-3.9359245300293
4130.41304130413,-3.93604779243469
4140.41404140414,-3.93140244483948
4150.41504150415,-3.91364336013794
4160.41604160416,-3.90184497833252
4170.41704170417,-3.8960075378418
4180.41804180418,-3.89493870735168
4190.41904190419,-3.89744639396667
4200.4200420042,-3.90472269058228
4210.42104210421,-3.91915202140808
4220.42204220422,-3.93954229354858
4230.42304230423,-3.96589326858521
4240.42404240424,-3.99820518493652
4250.42504250425,-3.99355983734131
4260.42604260426,-3.98295378684998
4270.42704270427,-3.94969630241394
4280.42804280428,-3.92001557350159
4290.42904290429,-3.89748764038086
4300.4300430043,-3.88092064857483
4310.43104310431,-3.8703145980835
4320.43204320432,-3.86566925048828
4330.43304330433,-3.86579251289368
4340.43404340434,-3.86830019950867
4350.43504350435,-3.87676858901978
4360.43604360436,-3.89239025115967
4370.43704370437,-3.91278052330017
4380.43804380438,-3.9403235912323
4390.43904390439,-3.93329405784607
4400.4400440044,-3.91553473472595
4410.44104410441,-3.90373659133911
4420.44204420442,-3.89789891242981
4430.44304430443,-3.89802241325378
4440.44404440444,-3.89933776855469
4450.44504450445,-3.90661430358887
4460.44604460446,-3.92104363441467
4470.44704470447,-3.92116689682007
4480.44804480448,-3.92009806632996
4490.44904490449,-3.92141366004944
4500.4500450045,-3.92749786376953
4510.45104510451,-3.94073510169983
4520.45204520452,-3.95993304252625
4530.45304530453,-3.95767211914063
4540.45404540454,-3.93395209312439
4550.45504550455,-3.91619277000427
4560.45604560456,-3.90439438819885
4570.45704570457,-3.89974927902222
4580.45804580458,-3.89987254142761
4590.45904590459,-3.90118813514709
4600.4600460046,-3.9096565246582
4610.46104610461,-3.92408585548401
4620.46204620462,-3.94447612762451
4630.46304630463,-3.95532894134521
4640.46404640464,-3.9566445350647
4650.46504650465,-3.96511292457581
4660.46604660466,-3.9783501625061
4670.46704670467,-3.94866943359375
4680.46804680468,-3.91898846626282
4690.46904690469,-3.89526844024658
4700.4700470047,-3.87750935554504
4710.47104710471,-3.86571097373962
4720.47204720472,-3.8598735332489
4730.47304730473,-3.85880470275879
4740.47404740474,-3.86131238937378
4750.47504750475,-3.86858868598938
4760.47604760476,-3.87705731391907
4770.47704770477,-3.87121963500977
4780.47804780478,-3.87134313583374
4790.47904790479,-3.87265849113464
4800.4800480048,-3.87993502616882
4810.48104810481,-3.89317202568054
4820.48204820482,-3.91237020492554
4830.48304830483,-3.91964650154114
4840.48404840484,-3.89473438262939
4850.48504850485,-3.87578296661377
4860.48604860486,-3.86279249191284
4870.48704870487,-3.85576272010803
4880.48804880488,-3.85469388961792
4890.48904890489,-3.8560094833374
4900.4900490049,-3.8620936870575
4910.49104910491,-3.87533092498779
4920.49204920492,-3.88141512870789
4930.49304930493,-3.88034629821777
4940.49404940494,-3.88046956062317
4950.49504950495,-3.88774585723877
4960.49604960496,-3.89979100227356
4970.49704970497,-3.91898894309998
4980.49804980498,-3.94414782524109
4990.49904990499,-3.9752676486969
5000.500050005,-3.95631623268127
5010.50105010501,-3.94213366508484
5020.50205020502,-3.93629622459412
5030.50305030503,-3.935227394104
5040.50405040504,-3.91866016387939
5050.50505050505,-3.89851665496826
5060.50605060506,-3.88433408737183
5070.50705070507,-3.87611222267151
5080.50805080508,-3.87385129928589
5090.50905090509,-3.87397456169128
5100.5100510051,-3.88005876541138
5110.51105110511,-3.89091157913208
5120.51205120512,-3.90891742706299
5130.51305130513,-3.93288421630859
5140.51405140514,-3.93062329292297
5150.51505150515,-3.91167187690735
5160.51605160516,-3.89868140220642
5170.51705170517,-3.8928439617157
5180.51805180518,-3.89177513122559
5190.51905190519,-3.89189839363098
5200.5200520052,-3.89917469024658
5210.52105210521,-3.91241192817688
5220.52205220522,-3.93041777610779
5230.52305230523,-3.93054127693176
5240.52405240524,-3.93066453933716
5250.52505250525,-3.93555665016174
5260.52605260526,-3.94640946388245
5270.52705270527,-3.96322321891785
5280.52805280528,-3.94069528579712
5290.52905290529,-3.91339874267578
5300.5300530053,-3.89206314086914
5310.53105310531,-3.87788033485413
5320.53205320532,-3.8684663772583
5330.53305330533,-3.86620545387268
5340.53405340534,-3.86632871627808
5350.53505350535,-3.87122082710266
5360.53605360536,-3.88207364082336
5370.53705370537,-3.90007948875427
5380.53805380538,-3.92285394668579
5390.53905390539,-3.92297744750977
5400.5400540054,-3.92786931991577
