Trace
Swept SA
A.16.09,N9010A
544 B25 B40 EXM FS1 MPB P44 RTL ,01
Segment,0
Number of Points,10000
Sweep Time,0.0093324
Start Frequency,0
Stop Frequency,100000
Average Count,50
Average Type,LogPower(Video)
RBW,470
RBW Filter,Gaussian
RBW Filter BW,3dB
VBW,4700
Sweep Type,Swept
X Axis Scale,Lin
PreAmp State,Off
PreAmp Band,Low
Trigger Source,Free
Trigger Level,1.2
Trigger Slope,Positive
Trigger Delay,0
Phase Noise Optimization,Narrow
Swept If Gain,Low
FFT If Gain,Autorange
RF Coupling,DC
FFT Width,411900
Ext Ref,10000000
Input,RF
RF Calibrator,Off
Attenuation,20
Ref Level Offset,0
External Gain,0
Trace Type,Maxhold
Detector,Peak
Trace Math,Off
Trace Math Oper1,Trace5
Trace Math Oper2,Trace6
Trace Math Offset,0
Normalize,Off
Trace Name,Trace1
X Axis Units,Hz
Y Axis Units,dBm
DATA
0,-2.60223627090454
10.00100010001,-2.57376956939697
20.00200020002,-2.54938697814941
30.00300030003,-2.52908897399902
40.00400040004,-2.51287508010864
50.00500050005,-2.50074553489685
60.00600060006,-2.49270033836365
70.00700070007,-2.48873925209045
80.00800080008,-2.48750114440918
90.00900090009,-2.48898601531982
100.0100010001,-2.49183225631714
110.01100110011,-2.50012421607971
120.01200120012,-2.51250028610229
130.01300130013,-2.52896094322205
140.01400140014,-2.54950571060181
150.01500150015,-2.57277345657349
160.01600160016,-2.60148692131042
170.01700170017,-2.63428473472595
180.01800180018,-2.67116665840149
190.01900190019,-2.71213316917419
200.0200020002,-2.75582242012024
210.02100210021,-2.80495738983154
220.02200220022,-2.85817646980286
230.02300230023,-2.91548013687134
240.02400240024,-2.97550654411316
250.02500250025,-3.04097867012024
260.02600260026,-3.11053514480591
270.02700270027,-3.18417596817017
280.02800280028,-3.26190090179443
290.02900290029,-3.34371042251587
300.0300030003,-3.42960405349731
310.03100310031,-3.51958203315735
320.03200320032,-3.61500573158264
330.03300330033,-3.71315217018127
340.03400340034,-3.81674456596375
350.03500350035,-3.92442107200623
360.03600360036,-4.03618192672729
370.03700370037,-4.15202713012695
380.03800380038,-4.27195692062378
390.03900390039,-4.39597034454346
400.0400040004,-4.52543020248413
410.04100410041,-4.65761232376099
420.04200420042,-4.79524087905884
430.04300430043,-4.93695306777954
440.04400440044,-5.08274984359741
450.04500450045,-5.23263072967529
460.04600460046,-5.38795757293701
470.04700470047,-5.55145311355591
480.04800480048,-5.72175550460815
490.04900490049,-5.89886522293091
500.0500050005,-6.08278226852417
510.05100510051,-6.13055562973022
520.05200520052,-6.12114906311035
530.05300530053,-6.11038112640381
540.05400540054,-6.09961271286011
550.05500550055,-6.08884477615356
560.05600560056,-6.07807636260986
570.05700570057,-6.07411575317383
580.05800580058,-6.07423877716064
590.05900590059,-6.07980823516846
600.0600060006,-6.09626865386963
610.06100610061,-6.12089776992798
620.06200620062,-6.15641832351685
630.06300630063,-6.20010757446289
640.06400640064,-6.25468826293945
650.06500650065,-6.16087245941162
660.06600660066,-6.05616569519043
670.06700670067,-5.95418167114258
680.06800680068,-5.85355854034424
690.06900690069,-5.75974321365356
700.0700070007,-5.67409610748291
710.07100710071,-5.5979790687561
720.07200720072,-5.53411531448364
730.07300730073,-5.4784197807312
740.07400740074,-5.43089294433594
750.07500750075,-5.39425754547119
760.07600760076,-5.36715221405029
770.07700770077,-5.34821557998657
780.07800780078,-5.34017038345337
790.07900790079,-5.34029340744019
800.0800080008,-5.33088684082031
810.08100810081,-5.3160343170166
820.08200820082,-5.31207370758057
830.08300830083,-5.31219673156738
840.08400840084,-5.3177661895752
850.08500850085,-5.3328652381897
860.08600860086,-5.35885572433472
870.08700870087,-5.39573764801025
880.08800880088,-5.44214963912964
890.08900890089,-5.4994535446167
900.0900090009,-5.488685131073
910.09100910091,-5.39078521728516
920.09200920092,-5.30377674102783
930.09300930093,-5.22629880905151
940.09400940094,-5.16107320785522
950.09500950095,-5.10401630401611
960.09600960096,-5.05785083770752
970.09700970097,-5.02121543884277
980.09800980098,-4.99411010742188
990.09900990099,-4.97789621353149
1000.100010001,-4.96848964691162
1010.10101010101,-4.94274568557739
1020.10201020102,-4.92653179168701
1030.10301030103,-4.92120933532715
1040.10401040104,-4.92133283615112
1050.10501050105,-4.92826318740845
1060.10601060106,-4.94472408294678
1070.10701070107,-4.97343730926514
1080.10801080108,-5.01168060302734
1090.10901090109,-5.06081581115723
1100.1100110011,-5.1222038269043
1110.11101110111,-5.19312143325806
1120.11201120112,-5.11564302444458
1130.11301130113,-5.02727317810059
1140.11401140114,-4.94843339920044
1150.11501150115,-4.88320827484131
1160.11601160116,-4.8261513710022
1170.11701170117,-4.78134727478027
1180.11801180118,-4.7460732460022
1190.11901190119,-4.72305250167847
1200.1200120012,-4.70956134796143
1210.12101210121,-4.70560026168823
1220.12201220122,-4.6825795173645
1230.12301230123,-4.6718111038208
1240.12401240124,-4.67057323455811
1250.12501250125,-4.67205762863159
1260.12601260126,-4.68171119689941
1270.12701270127,-4.70361757278442
1280.12801280128,-4.73505401611328
1290.12901290129,-4.77874326705933
1300.1300130013,-4.83196210861206
1310.13101310131,-4.89607286453247
1320.13201320132,-4.9710750579834
1330.13301330133,-4.89631986618042
1340.13401340134,-4.81067276000977
1350.13501350135,-4.73864030838013
1360.13601360136,-4.67613744735718
1370.13701370137,-4.62316513061523
1380.13801380138,-4.58244514465332
1390.13901390139,-4.55125570297241
1400.1400140014,-4.53231906890869
1410.14101410141,-4.52427387237549
1420.14201420142,-4.52303552627563
1430.14301430143,-4.50546026229858
1440.14401440144,-4.49877643585205
1450.14501450145,-4.49889993667603
1460.14601460146,-4.50310754776001
1470.14701470147,-4.51820659637451
1480.14801480148,-4.54419708251953
1490.14901490149,-4.58107900619507
1500.1500150015,-4.62885284423828
1510.15101510151,-4.68751764297485
1520.15201520152,-4.7570743560791
1530.15301530153,-4.82935333251953
1540.15401540154,-4.7382607460022
1550.15501550155,-4.65669822692871
1560.15601560156,-4.59011125564575
1570.15701570157,-4.53169298171997
1580.15801580158,-4.48416614532471
1590.15901590159,-4.44753074645996
1600.1600160016,-4.42178678512573
1610.16101610161,-4.40693426132202
1620.16201620162,-4.40433502197266
1630.16301630163,-4.40173530578613
1640.16401640164,-4.38960599899292
1650.16501650165,-4.3870062828064
1660.16601660166,-4.38712978363037
1670.16701670167,-4.39678287506104
1680.16801680168,-4.41732788085938
1690.16901690169,-4.44740295410156
1700.1700170017,-4.48973035812378
1710.17101710171,-4.541588306427
1720.17201720172,-4.60569906234741
1730.17301730173,-4.67933988571167
1740.17401740174,-4.69988489151001
1750.17501750175,-4.61287641525269
1760.17601760176,-4.53948211669922
1770.17701770177,-4.47425699234009
1780.17801780178,-4.42128419876099
1790.17901790179,-4.37784147262573
1800.1800180018,-4.34665203094482
1810.18101810181,-4.32499265670776
1820.18201820182,-4.31558561325073
1830.18301830183,-4.31434774398804
1840.18401840184,-4.31583261489868
1850.18501850185,-4.30778741836548
1860.18601860186,-4.30791044235229
1870.18701870187,-4.31075668334961
1880.18801880188,-4.32449436187744
1890.18901890189,-4.34776210784912
1900.1900190019,-4.38328266143799
1910.19101910191,-4.42969512939453
1920.19201920192,-4.48699855804443
1930.19301930193,-4.55519342422485
1940.19401940194,-4.63428020477295
1950.19501950195,-4.60172891616821
1960.19601960196,-4.52016639709473
1970.19701970197,-4.45085668563843
1980.19801980198,-4.39107656478882
1990.19901990199,-4.34218835830688
2000.200020002,-4.30419158935547
2010.20102010201,-4.27708625793457
2020.20202020202,-4.26087236404419
2030.20302030203,-4.25554990768433
2040.20402040204,-4.2556734085083
2050.20502050205,-4.25171232223511
2060.20602060206,-4.24775171279907
2070.20702070207,-4.24923610687256
2080.20802080208,-4.25616693496704
2090.20902090209,-4.27535009384155
2100.2100210021,-4.30542516708374
2110.21102110211,-4.34502983093262
2120.21202120212,-4.39688777923584
2130.21302130213,-4.45963716506958
2140.21402140214,-4.53191661834717
2150.21502150215,-4.61100292205811
2160.21602160216,-4.52263307571411
2170.21702170217,-4.44515466690063
2180.21802180218,-4.3799295425415
2190.21902190219,-4.32423400878906
2200.2200220022,-4.27942991256714
2210.22102210221,-4.24551725387573
2220.22202220222,-4.222496509552
2230.22302230223,-4.21036672592163
2240.22402240224,-4.20776748657227
2250.22502250225,-4.20925188064575
2260.22602260226,-4.21482133865356
2270.22702270227,-4.21494436264038
2280.22802280228,-4.21642923355103
2290.22902290229,-4.22744417190552
2300.2300230023,-4.2507119178772
2310.23102310231,-4.28350973129272
2320.23202320232,-4.32856035232544
2330.23302330233,-4.383141040802
2340.23402340234,-4.44861316680908
2350.23502350235,-4.52633810043335
2360.23602360236,-4.54279851913452
2370.23702370237,-4.4585132598877
2380.23802380238,-4.38784217834473
2390.23902390239,-4.32533931732178
2400.2400240024,-4.2737283706665
2410.24102410241,-4.23437023162842
2420.24202420242,-4.20454168319702
2430.24302430243,-4.18696641921997
2440.24402440244,-4.17892122268677
2450.24502450245,-4.17904472351074
2460.24602460246,-4.18325233459473
2470.24702470247,-4.18201398849487
2480.24802480248,-4.18213748931885
2490.24902490249,-4.1877064704895
2500.2500250025,-4.2055287361145
2510.25102510251,-4.23288059234619
2520.25202520252,-4.2711238861084
2530.25302530253,-4.32025909423828
2540.25402540254,-4.38028526306152
2550.25502550255,-4.45256471633911
2560.25602560256,-4.53437423706055
2570.25702570257,-4.47867870330811
2580.25802580258,-4.40120029449463
2590.25902590259,-4.33597469329834
2600.2600260026,-4.27891778945923
2610.26102610261,-4.23275279998779
2620.26202620262,-4.19884014129639
2630.26302630263,-4.17445755004883
2640.26402640264,-4.16096687316895
2650.26502650265,-4.15836715698242
2660.26602660266,-4.1584906578064
2670.26702670267,-4.15316820144653
2680.26802680268,-4.15192985534668
2690.26902690269,-4.15341472625732
2700.2700270027,-4.16306829452515
2710.27102710271,-4.18497467041016
2720.27202720272,-4.21777200698853
2730.27302730273,-4.2600998878479
2740.27402740274,-4.31468057632446
2750.27502750275,-4.37879133224487
2760.27602760276,-4.45515489578247
2770.27702770277,-4.50565147399902
2780.27802780278,-4.42000436782837
2790.27902790279,-4.34797191619873
2800.2800280028,-4.28410768508911
2810.28102810281,-4.23249673843384
2820.28202820282,-4.19041538238525
2830.28302830283,-4.16058731079102
2840.28402840284,-4.14028930664063
2850.28502850285,-4.13088274002075
2860.28602860286,-4.13100576400757
2870.28702870287,-4.1284065246582
2880.28802880288,-4.12172269821167
2890.28902890289,-4.12184572219849
2900.2900290029,-4.12605333328247
2910.29102910291,-4.14115285873413
2920.29202920292,-4.16714334487915
2930.29302930293,-4.20402526855469
2940.29402940294,-4.25179862976074
2950.29502950295,-4.31182527542114
2960.29602960296,-4.38138151168823
2970.29702970297,-4.461829662323
2980.29802980298,-4.4347243309021
2990.29902990299,-4.35452318191528
3000.300030003,-4.28793621063232
3010.30103010301,-4.22951793670654
3020.30203020302,-4.18199110031128
3030.30303030303,-4.1467170715332
3040.30403040304,-4.12097311019897
3050.30503050305,-4.10748243331909
3060.30603060306,-4.1035213470459
3070.30703070307,-4.10364437103271
3080.30803080308,-4.1105751991272
3090.30903090309,-4.11342144012451
3100.3100310031,-4.11354446411133
3110.31103110311,-4.12319803237915
3120.31203120312,-4.14238166809082
3130.31303130313,-4.17381763458252
3140.31403140314,-4.21478414535522
3150.31503150315,-4.26664209365845
3160.31603160316,-4.33075284957886
3170.31703170317,-4.40439367294312
3180.31803180318,-4.48892545700073
3190.31903190319,-4.40327882766724
3200.3200320032,-4.32716178894043
3210.32103210321,-4.26465940475464
3220.32203220322,-4.21032524108887
3230.32303230323,-4.16824388504028
3240.32403240324,-4.13569307327271
3250.32503250325,-4.11403322219849
3260.32603260326,-4.10462665557861
3270.32703270327,-4.10338878631592
3280.32803280328,-4.10078907012939
3290.32903290329,-4.09274387359619
3300.3300330033,-4.0915060043335
3310.33103310331,-4.09571361541748
3320.33203320332,-4.10808944702148
3330.33303330333,-4.13271903991699
3340.33403340334,-4.16823959350586
3350.33503350335,-4.21329021453857
3360.33603360336,-4.27059364318848
3370.33703370337,-4.3387885093689
3380.33803380338,-4.41787528991699
3390.33903390339,-4.43025159835815
3400.3400340034,-4.34868860244751
3410.34103410341,-4.27937889099121
3420.34203420342,-4.21959924697876
3430.34303430343,-4.17071104049683
3440.34403440344,-4.13271427154541
3450.34503450345,-4.10560894012451
3460.34603460346,-4.08939504623413
3470.34703470347,-4.08407258987427
3480.34803480348,-4.08419609069824
3490.34903490349,-4.08704233169556
3500.3500350035,-4.08308124542236
3510.35103510351,-4.08320474624634
3520.35203520352,-4.09013509750366
3530.35303530353,-4.10931873321533
3540.35403540354,-4.13803195953369
3550.35503550355,-4.17763710021973
3560.35603560356,-4.22813320159912
3570.35703570357,-4.28952121734619
3580.35803580358,-4.36180067062378
3590.35903590359,-4.44497108459473
3600.3600360036,-4.39608287811279
3610.36103610361,-4.32132768630981
3620.36203620362,-4.25474071502686
3630.36303630363,-4.20040655136108
3640.36403640364,-4.15696382522583
3650.36503650365,-4.12305164337158
3660.36603660366,-4.10139179229736
3670.36703670367,-4.08926248550415
3680.36803680368,-4.0880241394043
3690.36903690369,-4.08814764022827
3700.3700370037,-4.0787410736084
3710.37103710371,-4.07750272750854
3720.37203720372,-4.08034896850586
3730.37303730373,-4.09136390686035
3740.37403740374,-4.11463165283203
3750.37503750375,-4.14879083633423
3760.37603760376,-4.19248008728027
3770.37703770377,-4.24842214584351
3780.37803780378,-4.31525564193726
3790.37903790379,-4.39161920547485
3800.3800380038,-4.43939304351807
3810.38103810381,-4.35646867752075
3820.38203820382,-4.28443622589111
3830.38303830383,-4.22193336486816
3840.38403840384,-4.17168378829956
3850.38503850385,-4.1309642791748
3860.38603860386,-4.10249757766724
3870.38703870387,-4.08492231369019
3880.38803880388,-4.07687711715698
3890.38903890389,-4.0770001411438
3900.3900390039,-4.07167768478394
3910.39103910391,-4.06635522842407
3920.39203920392,-4.06647872924805
3930.39303930393,-4.07340908050537
3940.39403940394,-4.09123134613037
3950.39503950395,-4.11858320236206
3960.39603960396,-4.1581883430481
3970.39703970397,-4.20732307434082
3980.39803980398,-4.26871109008789
3990.39903990399,-4.34099054336548
4000.400040004,-4.42279958724976
4010.40104010401,-4.38752603530884
4020.40204020402,-4.31140899658203
4030.40304030403,-4.2434606552124
4040.40404040404,-4.18776512145996
4050.40504050405,-4.14159965515137
4060.40604060406,-4.10632562637329
4070.40704070407,-4.08194351196289
4080.40804080408,-4.06981372833252
4090.40904090409,-4.06585264205933
4100.4100410041,-4.06733751296997
4110.41104110411,-4.06609964370728
4120.41204120412,-4.06486129760742
4130.41304130413,-4.0649847984314
4140.41404140414,-4.07599973678589
4150.41504150415,-4.09654426574707
4160.41604160416,-4.1293420791626
4170.41704170417,-4.17166996002197
4180.41804180418,-4.22488927841187
4190.41904190419,-4.29036140441895
4200.4200420042,-4.36536359786987
4210.42104210421,-4.42811298370361
4220.42204220422,-4.34382724761963
4230.42304230423,-4.26907205581665
4240.42404240424,-4.20793056488037
4250.42504250425,-4.1563196182251
4260.42604260426,-4.11559963226318
4270.42704270427,-4.08441019058228
4280.42804280428,-4.06547355651855
4290.42904290429,-4.05606698989868
4300.4300430043,-4.0561900138855
4310.43104310431,-4.05903625488281
4320.43204320432,-4.0632438659668
4330.43304330433,-4.06336736679077
4340.43404340434,-4.06757497787476
4350.43504350435,-4.08267402648926
4360.43604360436,-4.10866451263428
4370.43704370437,-4.14554691314697
4380.43804380438,-4.19332027435303
4390.43904390439,-4.2519850730896
4400.4400440044,-4.32290315628052
4410.44104410441,-4.40335130691528
4420.44204420442,-4.39394426345825
4430.44304430443,-4.31374311447144
4440.44404440444,-4.24579477310181
4450.44504450445,-4.1887378692627
4460.44604460446,-4.14121103286743
4470.44704470447,-4.10593700408936
4480.44804480448,-4.08019351959229
4490.44904490449,-4.06534099578857
4500.4500450045,-4.06274127960205
4510.45104510451,-4.06286478042603
4520.45204520452,-4.06298828125
4530.45304530453,-4.06174993515015
4540.45404540454,-4.06187343597412
4550.45504550455,-4.07152652740479
4560.45604560456,-4.09071016311646
4570.45704570457,-4.12214660644531
4580.45804580458,-4.16311264038086
4590.45904590459,-4.21497058868408
4600.4600460046,-4.27908134460449
4610.46104610461,-4.35272216796875
4620.46204620462,-4.43316984176636
4630.46304630463,-4.34752321243286
4640.46404640464,-4.27412891387939
4650.46504650465,-4.20890331268311
4660.46604660466,-4.15593099594116
4670.46704670467,-4.11248826980591
4680.46804680468,-4.07993745803833
4690.46904690469,-4.05963945388794
4700.4700470047,-4.04887104034424
4710.47104710471,-4.04763317108154
4720.47204720472,-4.05047941207886
4730.47304730473,-4.05604839324951
4740.47404740474,-4.05481004714966
4750.47504750475,-4.05765628814697
4760.47604760476,-4.0713939666748
4770.47704770477,-4.09466171264648
4780.47804780478,-4.13018226623535
4790.47904790479,-4.17659473419189
4800.4800480048,-4.2338981628418
4810.48104810481,-4.30209302902222
4820.48204820482,-4.38117980957031
4830.48304830483,-4.40580892562866
4840.48404840484,-4.32288455963135
4850.48504850485,-4.25221347808838
4860.48604860486,-4.19243383407593
4870.48704870487,-4.14354562759399
4880.48804880488,-4.10554885864258
4890.48904890489,-4.07844352722168
4900.4900490049,-4.0622296333313
4910.49104910491,-4.05554580688477
4920.49204920492,-4.05566883087158
4930.49304930493,-4.06123828887939
4940.49404940494,-4.06136131286621
4950.49504950495,-4.06148481369019
4960.49604960496,-4.06841516494751
4970.49704970497,-4.08759880065918
4980.49804980498,-4.11631202697754
4990.49904990499,-4.15591716766357
5000.500050005,-4.2077751159668
5010.50105010501,-4.26916265487671
5020.50205020502,-4.3414421081543
5030.50305030503,-4.4246129989624
5040.50405040504,-4.36483335494995
5050.50505050505,-4.28735494613647
5060.50605060506,-4.22349071502686
5070.50705070507,-4.16915655136108
5080.50805080508,-4.12435293197632
5090.50905090509,-4.09044027328491
5100.5100510051,-4.06878089904785
5110.51105110511,-4.05665111541748
5120.51205120512,-4.05405139923096
5130.51305130513,-4.0555362701416
5140.51405140514,-4.0474910736084
5150.51505150515,-4.0462532043457
5160.51605160516,-4.04909944534302
5170.51705170517,-4.06011390686035
5180.51805180518,-4.08338165283203
5190.51905190519,-4.11617946624756
5200.5200520052,-4.16123008728027
5210.52105210521,-4.21581077575684
5220.52205220522,-4.28264427185059
5230.52305230523,-4.36036968231201
5240.52405240524,-4.39997434616089
5250.52505250525,-4.31568908691406
5260.52605260526,-4.24501752853394
5270.52705270527,-4.18251514434814
5280.52805280528,-4.13226556777954
5290.52905290529,-4.09154558181763
5300.5300530053,-4.06307888031006
5310.53105310531,-4.04550361633301
5320.53205320532,-4.0374584197998
5330.53305330533,-4.03758192062378
5340.53405340534,-4.04178953170776
5350.53505350535,-4.04599714279175
5360.53605360536,-4.04612064361572
5370.53705370537,-4.05168962478638
5380.53805380538,-4.06815004348755
