Trace
Swept SA
A.16.09,N9010A
544 B25 B40 EXM FS1 MPB P44 RTL ,01
Segment,0
Number of Points,10000
Sweep Time,0.0013332
Start Frequency,0
Stop Frequency,10000000
Average Count,50
Average Type,LogPower(Video)
RBW,24000
RBW Filter,Gaussian
RBW Filter BW,3dB
VBW,240000
Sweep Type,Swept
X Axis Scale,Lin
PreAmp State,Off
PreAmp Band,Low
Trigger Source,Free
Trigger Level,1.2
Trigger Slope,Positive
Trigger Delay,0
Phase Noise Optimization,Narrow
Swept If Gain,Low
FFT If Gain,Autorange
RF Coupling,DC
FFT Width,411900
Ext Ref,10000000
Input,RF
RF Calibrator,Off
Attenuation,40
Ref Level Offset,0
External Gain,0
Trace Type,Maxhold
Detector,Peak
Trace Math,Off
Trace Math Oper1,Trace5
Trace Math Oper2,Trace6
Trace Math Offset,0
Normalize,Off
Trace Name,Trace1
X Axis Units,Hz
Y Axis Units,dBm
DATA
0,16.1019172668457
1000.100010001,15.9942045211792
2000.200020002,15.8459882736206
3000.300030003,15.6572694778442
4000.400040004,15.426739692688
5000.500050005,15.1570148468018
6000.600060006,14.852011680603
7000.700070007,14.5038928985596
8000.800080008,14.163613319397
9000.900090009,13.8011283874512
10001.00010001,13.4078378677368
11001.100110011,12.9779634475708
12001.200120012,12.5115051269531
13001.300130013,12.0071573257446
14001.400140014,11.464919090271
15001.500150015,10.88609790802
16001.600160016,10.2706928253174
17001.700170017,9.62001037597656
18001.800180018,8.9327449798584
19001.900190019,8.20889663696289
20002.00020002,7.44977045059204
21002.100210021,6.73637342453003
22002.200220022,6.04649496078491
23002.300230023,5.35139036178589
24002.400240024,4.6510591506958
25002.500250025,3.94680833816528
26002.600260026,3.24778389930725
27002.700270027,2.55137252807617
28002.800280028,1.85888075828552
29002.900290029,1.17553496360779
30003.00030003,0.500028371810913
31003.100310031,-0.166332274675369
32003.200320032,-0.822240471839905
33003.300330033,-1.46900284290314
34003.400340034,-2.10661935806274
35003.500350035,-2.74031615257263
36003.600360036,-3.36748027801514
37003.700370037,-3.69544339179993
38003.800380038,-3.94762659072876
39003.900390039,-4.15016078948975
40004.00040004,-4.20897388458252
41004.100410041,-4.26125383377075
42004.200420042,-4.32398700714111
43004.300430043,-4.39978504180908
44004.400440044,-4.48995542526245
45004.500450045,-4.60364389419556
46004.600460046,-4.74738311767578
47004.700470047,-4.81142234802246
48004.800480048,-4.84933090209961
49004.900490049,-4.89377164840698
50005.00050005,-4.88330984115601
51005.100510051,-4.88425636291504
52005.200520052,-4.91917324066162
53005.300530053,-4.99459314346313
54005.400540054,-5.00207233428955
55005.500550055,-4.99909925460815
56005.600560056,-5.01703119277954
57005.700570057,-5.02451038360596
58005.800580058,-5.03329610824585
59005.900590059,-5.07997226715088
60006.00060006,-5.14102029800415
61006.100610061,-5.18508291244507
62006.200620062,-5.19517517089844
63006.300630063,-5.22225284576416
64006.400640064,-5.28330087661743
65006.500650065,-5.32736349105835
66006.600660066,-5.34529542922974
67006.700670067,-5.34493541717529
68006.800680068,-5.33151006698608
69006.900690069,-5.31808423995972
70007.00070007,-5.32295036315918
71007.100710071,-5.36309337615967
72007.200720072,-5.44243335723877
73007.300730073,-5.39111757278442
74007.400740074,-5.37638568878174
75007.500750075,-5.3812518119812
76007.600760076,-5.42008829116821
77007.700770077,-5.49942827224731
78007.800780078,-5.61665773391724
79007.900790079,-5.77308416366577
80008.00080008,-5.82498645782471
81008.100810081,-5.91347217559814
82008.200820082,-5.97713327407837
83008.300830083,-5.88792753219604
84008.400840084,-5.82746601104736
85008.500850085,-5.80881404876709
86008.600860086,-5.81237411499023
87008.700870087,-5.84990406036377
88008.800880088,-5.92793703079224
89008.900890089,-6.04778003692627
90009.00090009,-6.12842655181885
91009.100910091,-6.23651027679443
92009.200920092,-6.33675479888916
93009.300930093,-6.35991287231445
94009.400940094,-6.37915134429932
95009.500950095,-6.37617778778076
96009.600960096,-6.38757705688477
97009.700970097,-6.43947887420654
98009.800980098,-6.53188419342041
99009.900990099,-6.63343572616577
100010.0010001,-6.66573286056519
101010.101010101,-6.70654249191284
102010.201020102,-6.77870941162109
103010.301030103,-6.81429290771484
104010.401040104,-6.87731409072876
105010.501050105,-6.90244483947754
106010.601060106,-6.92757606506348
107010.701070107,-6.99451684951782
108010.801080108,-7.04969835281372
109010.901090109,-7.10879993438721
110011.00110011,-7.11825227737427
111011.101110111,-7.16428804397583
112011.201120112,-7.24952030181885
113011.301130113,-7.31384801864624
114011.401140114,-7.40169334411621
115011.501150115,-7.43858337402344
116011.601160116,-7.48723268508911
117011.701170117,-7.51236343383789
118011.801180118,-7.57799768447876
119011.901190119,-7.64232540130615
120012.00120012,-7.68705463409424
121012.101210121,-7.77098035812378
122012.201220122,-7.78957843780518
123012.301230123,-7.84998655319214
124012.401240124,-7.85813236236572
125012.501250125,-7.89632892608643
126012.601260126,-7.97502851486206
127012.701270127,-8.0537281036377
128012.801280128,-8.11544227600098
129012.901290129,-8.13404083251953
130013.00130013,-8.19444847106934
131013.101310131,-8.2522439956665
132013.201320132,-8.31918430328369
133013.301330133,-8.42793464660645
134013.401340134,-8.51578044891357
135013.501350135,-8.51216697692871
136013.601360136,-8.5177001953125
137013.701370137,-8.55981636047363
138013.801380138,-8.64243507385254
139013.901390139,-8.73812007904053
140014.00140014,-8.73973369598389
141014.101410141,-8.77531719207764
142014.201420142,-8.85009670257568
143014.301430143,-8.90658473968506
144014.401440144,-9.0048828125
145014.501450145,-9.04569244384766
146014.601460146,-9.10348701477051
147014.701470147,-9.20178508758545
148014.801480148,-9.20470523834229
149014.901490149,-9.24028873443604
150015.00150015,-9.31506824493408
151015.101510151,-9.4316577911377
152015.201520152,-9.5495548248291
153015.301530153,-9.57076549530029
154015.401540154,-9.63117408752441
155015.501550155,-9.63539981842041
156015.601560156,-9.67490291595459
157015.701570157,-9.75360298156738
158015.801580158,-9.86235332489014
159015.901590159,-9.94497203826904
160016.00160016,-10.0680952072144
161016.101610161,-10.2238817214966
162016.201620162,-10.3143396377563
163016.301630163,-10.2767562866211
164016.401640164,-10.2483186721802
165016.501650165,-10.2473182678223
166016.601660166,-10.2724494934082
167016.701670167,-10.3367767333984
168016.801680168,-10.3880395889282
169016.901690169,-10.4562864303589
170017.00170017,-10.5323734283447
171017.101710171,-10.6006202697754
172017.201720172,-10.3409223556519
173017.301730173,-10.1191148757935
174017.401740174,-9.93650341033936
175017.501750175,-9.79178237915039
176017.601760176,-9.68625831604004
177017.701770177,-9.61601066589355
178017.801780178,-9.58626651763916
179017.901790179,-9.58265399932861
180018.00180018,-9.6038646697998
181018.101810181,-9.66296577453613
182018.201820182,-9.7599573135376
183018.301830183,-9.89353275299072
184018.401840184,-10.0649976730347
185018.501850185,-10.2717399597168
186018.601860186,-10.5176782608032
187018.701870187,-10.7988939285278
188018.801880188,-11.1179990768433
189018.901890189,-11.4749946594238
190019.00190019,-11.8698806762695
191019.101910191,-11.8845596313477
192019.201920192,-11.8352165222168
193019.301930193,-11.8250703811646
194019.401940194,-11.8332166671753
195019.501950195,-11.8779458999634
196019.601960196,-11.964485168457
197019.701970197,-12.0889139175415
198019.801980198,-12.2538461685181
199019.901990199,-12.4579744338989
200020.0020002,-12.6595249176025
201020.102010201,-12.7412414550781
202020.202020202,-12.7667760848999
203020.302030203,-12.8328132629395
204020.402040204,-12.8674945831299
205020.502050205,-12.8708171844482
206020.602060206,-12.9028844833374
207020.702070207,-12.9741487503052
208020.802080208,-13.0846090316772
209020.902090209,-13.1820039749146
210021.00210021,-13.2388963699341
211021.102110211,-13.2657375335693
212021.202120212,-13.2729797363281
213021.302130213,-13.3128871917725
214021.402140214,-13.3906841278076
215021.502150215,-13.5089836120605
216021.602160216,-13.5815544128418
217021.702170217,-13.6488981246948
218021.802180218,-13.7580528259277
219021.902190219,-13.8240900039673
220022.00220022,-13.9045000076294
221022.102210221,-13.9822969436646
222022.202220222,-13.9712476730347
223022.302230223,-13.9327611923218
224022.402240224,-13.9295520782471
225022.502250225,-13.9485540390015
226022.602260226,-13.8996143341064
227022.702270227,-13.8245449066162
228022.802280228,-13.7873649597168
229022.902290229,-13.7841548919678
230023.00230023,-13.8044633865356
231023.102310231,-13.8639688491821
232023.202320232,-13.9652833938599
233023.302330233,-14.1071014404297
234023.402340234,-14.2894220352173
235023.502350235,-14.5135526657104
236023.602360236,-14.7794933319092
237023.702370237,-14.9186983108521
238023.802380238,-14.9115686416626
239023.902390239,-14.9253444671631
240024.00240024,-14.9299745559692
241024.102410241,-14.9228448867798
242024.202420242,-14.7589292526245
243024.302430243,-14.6289844512939
244024.402440244,-14.5356225967407
245024.502450245,-14.4775371551514
246024.602460246,-14.4547290802002
247024.702470247,-14.4554395675659
248024.802480248,-14.4456968307495
249024.902490249,-14.264796257019
250025.00250025,-14.0486183166504
251025.102510251,-13.7396755218506
252025.202520252,-13.472541809082
253025.302530253,-13.2485246658325
254025.402540254,-13.0650110244751
255025.502550255,-12.9246129989624
256025.602560256,-12.8260250091553
257025.702570257,-12.7692470550537
258025.802580258,-12.7529716491699
259025.902590259,-12.7576017379761
260026.00260026,-12.7975082397461
261026.102610261,-12.8792247772217
262026.202620262,-13.0027503967285
263026.302630263,-13.1667795181274
264026.402640264,-13.3726186752319
265026.502650265,-13.5797643661499
266026.602660266,-13.2263984680176
267026.702670267,-12.9070024490356
268026.802680268,-12.6215772628784
269026.902690269,-12.3714294433594
270027.00270027,-12.1539449691772
271027.102710271,-11.9717378616333
272027.202720272,-11.7699317932129
273027.302730273,-11.5968704223633
274027.402740274,-11.4616985321045
275027.502750275,-11.3618040084839
276027.602760276,-11.3024129867554
277027.702770277,-11.2782983779907
278027.802780278,-11.2790079116821
279027.902790279,-11.3071565628052
280028.00280028,-11.3718872070313
281028.102810281,-11.4745082855225
282028.202820282,-11.6150197982788
283028.302830283,-11.7934217453003
284028.402840284,-12.0097131729126
285028.502850285,-12.2625875473022
286028.602860286,-12.5546588897705
287028.702870287,-12.8833141326904
288028.802880288,-13.251166343689
289028.902890289,-13.5275592803955
290029.00290029,-13.2761039733887
291029.102910291,-13.0390214920044
292029.202920292,-12.8215370178223
293029.302930293,-12.6236505508423
294029.402940294,-12.4427499771118
295029.502950295,-12.282753944397
296029.602960296,-12.1423559188843
297029.702970297,-12.0228633880615
298029.802980298,-11.9255819320679
299029.902990299,-11.8531246185303
300030.0030003,-11.8067750930786
301030.103010301,-11.7831573486328
302030.203020302,-11.7817506790161
303030.303030303,-11.7960224151611
304030.403040304,-11.8377323150635
305030.503050305,-11.9081859588623
306030.603060306,-12.0073843002319
307030.703070307,-12.137939453125
308030.803080308,-12.2985458374023
309030.903090309,-12.3023653030396
310031.00310031,-12.1781425476074
311031.103110311,-12.0839710235596
312031.203120312,-12.0198497772217
313031.303130313,-11.988392829895
314031.403140314,-11.9830665588379
315031.503150315,-11.9973382949829
316031.603160316,-12.0442743301392
317031.703170317,-12.1264867782593
318031.803180318,-12.2047805786133
319031.903190319,-12.0831708908081
320032.00320032,-12.0033712387085
321032.103210321,-11.9653806686401
322032.203220322,-11.9613609313965
323032.303230323,-11.9808597564697
324032.403240324,-12.0421676635742
325032.503250325,-12.0708122253418
326032.603260326,-11.9949312210083
327032.703270327,-11.8471908569336
328032.803280328,-11.7412605285645
329032.903290329,-11.6771392822266
330033.00330033,-11.6548280715942
331033.103310331,-11.6560344696045
332033.203320332,-11.6912107467651
333033.303330333,-11.6662864685059
334033.403340334,-11.6596536636353
335033.503350335,-11.4596509933472
336033.603360336,-11.2962322235107
337033.703370337,-11.1733160018921
338033.803380338,-11.0909032821655
339033.903390339,-11.0476865768433
340034.00340034,-11.0397472381592
341034.103410341,-11.0514059066772
342034.203420342,-11.1022615432739
343034.303430343,-11.1256799697876
344034.403440344,-11.1308059692383
345034.503450345,-11.1712093353271
346034.603460346,-11.1253795623779
347034.703470347,-11.0390472412109
348034.803480348,-10.9683933258057
349034.903490349,-10.7866821289063
350035.00350035,-10.6441679000854
351035.103510351,-10.5434637069702
352035.203520352,-10.4819555282593
353035.303530353,-10.4609508514404
354035.403540354,-10.4634637832642
355035.503550355,-10.4973344802856
356035.603560356,-10.5704011917114
357035.703570357,-10.4736156463623
358035.803580358,-10.4029626846313
359035.903590359,-10.2369298934937
360036.00360036,-10.0630578994751
361036.103610361,-9.93099594116211
362036.203620362,-9.84074401855469
363036.303630363,-9.79230117797852
364036.403640364,-9.78436183929443
365036.503650365,-9.79340839385986
366036.603660366,-9.84165096282959
367036.703670367,-9.93039608001709
368036.803680368,-10.0596446990967
369036.903690369,-10.1875877380371
370037.00370037,-10.0555257797241
371037.103710371,-9.958740234375
372037.203720372,-9.90376472473145
373037.303730373,-9.8879861831665
374037.403740374,-9.8931131362915
375037.503750375,-9.93351554870605
376037.603760376,-10.014422416687
377037.703770377,-10.0443725585938
378037.803780378,-10.0834693908691
379037.903790379,-9.97884559631348
380038.00380038,-9.91472434997559
381038.103810381,-9.82839202880859
382038.203820382,-9.70939540863037
383038.303830383,-9.63090229034424
384038.403840384,-9.59291172027588
385038.503850385,-9.58889198303223
386038.603860386,-9.60577774047852
387038.703870387,-9.66447257995605
388038.803880388,-9.71924781799316
389038.903890389,-9.67211151123047
390039.00390039,-9.62889575958252
391039.103910391,-9.62226295471191
392039.203920392,-9.63653469085693
393039.303930393,-9.67563152313232
394039.403940394,-9.6533203125
395039.503950395,-9.60879707336426
396039.603960396,-9.54467582702637
397039.703970397,-9.52236461639404
398039.803980398,-9.5235710144043
399039.903990399,-9.53392314910889
400040.0040004,-9.47241973876953
401040.104010401,-9.45413780212402
402040.204020402,-9.45676136016846
403040.304030403,-9.49466133117676
404040.404040404,-9.48291206359863
405040.504050405,-9.46593761444092
406040.604060406,-9.46986675262451
407040.704070407,-9.46595764160156
408040.804080408,-9.43591690063477
409040.904090409,-9.43461990356445
410041.00410041,-9.45945453643799
411041.104110411,-9.43855953216553
412041.204120412,-9.43987655639648
413041.304130413,-9.45687103271484
414041.404140414,-9.46341419219971
415041.504150415,-9.23739051818848
416041.604160416,-8.92905330657959
417041.704170417,-8.66122055053711
418041.804180418,-8.43388938903809
419041.904190419,-8.24706268310547
420042.00420042,-8.1020450592041
421042.104210421,-7.9988374710083
422042.204220422,-7.93613290786743
423042.304230423,-7.91393136978149
424042.404240424,-7.91524791717529
425042.504250425,-7.94792175292969
426042.604260426,-8.02109909057617
427042.704270427,-8.13608551025391
428042.804280428,-8.29157543182373
429042.904290429,-8.48756885528564
430043.00430043,-8.72537136077881
431043.104310431,-9.00367736816406
432043.204320432,-9.32379341125488
433043.304330433,-9.47144317626953
434043.404340434,-9.43878936767578
435043.504350435,-9.43618679046631
436043.604360436,-9.36564254760742
437043.704370437,-9.2637414932251
438043.804380438,-9.20365047454834
439043.904390439,-9.18536853790283
440044.00440044,-9.18929767608643
441044.104410441,-9.22719860076904
442044.204420442,-9.30560111999512
443044.304430443,-9.4245080947876
444044.404440444,-9.52642917633057
445044.504450445,-9.4323673248291
446044.604460446,-9.37750148773193
447044.704470447,-9.3618335723877
448044.804480448,-9.36706924438477
449044.904490449,-9.4088888168335
450045.00450045,-9.48990535736084
451045.104510451,-9.48991584777832
452045.204520452,-9.38540077209473
453045.304530453,-9.32139015197754
454045.404540454,-9.26783180236816
455045.504550455,-9.13457298278809
456045.604560456,-9.03397846221924
457045.704570457,-8.96866035461426
458045.804580458,-8.93861961364746
459045.904590459,-8.93471050262451
460046.00460046,-8.95039844512939
461046.104610461,-9.00136470794678
462046.204620462,-9.08760738372803
463046.304630463,-9.14118576049805
464046.404640464,-9.04189777374268
465046.504650465,-8.98049926757813
466046.604660466,-8.95960521697998
467046.704670467,-8.81850719451904
468046.804680468,-8.66826343536377
469046.904690469,-8.55591011047363
470047.00470047,-8.48667240142822
471047.104710471,-8.4579381942749
472047.204720472,-8.45664119720459
473047.304730473,-8.4827823638916
474047.404740474,-8.54812049865723
475047.504750475,-8.65265464782715
476047.604760476,-8.79769229888916
477047.704770477,-8.98453903198242
478047.804780478,-9.21189022064209
479047.904790479,-9.47974300384521
480048.00480048,-9.78810024261475
481048.104810481,-9.89394092559814
482048.204820482,-9.97234439849854
483048.304830483,-10.0912504196167
484048.404840484,-10.1200046539307
485048.504850485,-10.1160955429077
486048.604860486,-10.1343965530396
487048.704870487,-10.1945085525513
488048.804880488,-10.2520065307617
489048.904890489,-10.2402582168579
490049.00490049,-10.2076034545898
491049.104910491,-10.2050008773804
492049.204920492,-10.2233028411865
493049.304930493,-10.2834138870239
494049.404940494,-10.3187007904053
495049.504950495,-10.2991123199463
496049.604960496,-10.3030424118042
497049.704970497,-10.0247564315796
498049.804980498,-9.6719970703125
499049.904990499,-9.35974025726318
500050.0050005,-9.0892972946167
501050.105010501,-8.86073017120361
502050.205020502,-8.67397308349609
503050.305030503,-8.52902603149414
504050.405040504,-8.42458152770996
505050.505050505,-8.36064052581787
506050.605060506,-8.33850955963135
507050.705070507,-8.33858871459961
508050.805080508,-8.37263965606689
509050.905090509,-8.44719314575195
510051.00510051,-8.56355667114258
511051.105110511,-8.72042274475098
512051.205120512,-8.91909885406494
513051.305130513,-9.158278465271
514051.405140514,-9.44057369232178
515051.505150515,-9.76337242126465
516051.605160516,-10.1292877197266
517051.705170517,-10.5383195877075
518051.805180518,-10.6782007217407
519051.905190519,-10.5802888870239
520052.00520052,-10.5228805541992
521052.105210521,-10.4445676803589
522052.205220522,-10.2813282012939
523052.305230523,-10.1546726226807
524052.405240524,-10.0645999908447
525052.505250525,-10.0111112594604
526052.605260526,-9.99289989471436
527052.705270527,-9.99559307098389
528052.805280528,-10.0257234573364
529052.905290529,-10.0911312103271
530053.00530053,-10.1918163299561
531053.105310531,-10.3264713287354
532053.205320532,-10.4977102279663
533053.305330533,-10.7016124725342
534053.405340534,-10.7683267593384
535053.505350535,-10.5959415435791
536053.605360536,-10.4653663635254
537053.705370537,-10.3752937316895
538053.805380538,-10.3257246017456
