Trace
Swept SA
A.16.09,N9010A
544 B25 B40 EXM FS1 MPB P44 RTL ,01
Segment,0
Number of Points,10000
Sweep Time,0.0013332
Start Frequency,0
Stop Frequency,1000000
Average Count,50
Average Type,LogPower(Video)
RBW,3900
RBW Filter,Gaussian
RBW Filter BW,3dB
VBW,39000
Sweep Type,Swept
X Axis Scale,Lin
PreAmp State,Off
PreAmp Band,Low
Trigger Source,Free
Trigger Level,1.2
Trigger Slope,Positive
Trigger Delay,0
Phase Noise Optimization,Narrow
Swept If Gain,Low
FFT If Gain,Autorange
RF Coupling,DC
FFT Width,411900
Ext Ref,10000000
Input,RF
RF Calibrator,Off
Attenuation,40
Ref Level Offset,0
External Gain,0
Trace Type,Maxhold
Detector,Peak
Trace Math,Off
Trace Math Oper1,Trace5
Trace Math Oper2,Trace6
Trace Math Offset,0
Normalize,Off
Trace Name,Trace1
X Axis Units,Hz
Y Axis Units,dBm
DATA
0,16.1179065704346
100.0100010001,16.1174087524414
200.0200020002,16.1058864593506
300.0300030003,16.0796642303467
400.0400040004,16.0380096435547
500.0500050005,15.980920791626
600.0600060006,15.9076633453369
700.0700070007,15.8197078704834
800.0800080008,15.7163181304932
900.0900090009,15.5974941253662
1000.100010001,15.4632377624512
1100.1100110011,15.3135471343994
1200.1200120012,15.1491575241089
1300.1300130013,14.968599319458
1400.1400140014,14.7726078033447
1500.1500150015,14.5604476928711
1600.1600160016,14.3321189880371
1700.1700170017,14.1192235946655
1800.1800180018,13.9048585891724
1900.1900190019,13.67799949646
2000.200020002,13.4393815994263
2100.2100210021,13.1897401809692
2200.2200220022,12.9290733337402
2300.2300230023,12.6566486358643
2400.2400240024,12.3731994628906
2500.2500250025,12.0779914855957
2600.2600260026,11.7717590332031
2700.2700270027,11.4537687301636
2800.2800280028,11.1247529983521
2900.2900290029,10.7847137451172
3000.300030003,10.432915687561
3100.3100310031,10.0693588256836
3200.3200320032,9.69551277160645
3300.3300330033,9.30990695953369
3400.3400340034,8.91254329681396
3500.3500350035,8.5078296661377
3600.3600360036,8.09797096252441
3700.3700370037,7.68223333358765
3800.3800380038,7.26061630249023
3900.3900390039,6.83311986923218
4000.400040004,6.39974355697632
4100.4100410041,5.96048784255981
4200.4200420042,5.51535272598267
4300.4300430043,5.06433820724487
4400.4400440044,4.60817909240723
4500.4500450045,4.14540529251099
4600.4600460046,3.67748737335205
4700.4700470047,3.20368981361389
4800.4800480048,2.74826550483704
4900.4900490049,2.3567807674408
5000.500050005,1.97264540195465
5100.5100510051,1.59512448310852
5200.5200520052,1.2249528169632
5300.5300530053,0.861395716667175
5400.5400540054,0.50518786907196
5500.5500550055,0.156329467892647
5600.5600560056,-0.185914531350136
5700.5700570057,-0.520809173583984
5800.5800580058,-0.849089384078979
5900.5900590059,-1.17002022266388
6000.600060006,-1.48360168933868
6100.6100610061,-1.70825588703156
6200.6200620062,-1.90277755260468
6300.6300630063,-2.08921504020691
6400.6400640064,-2.26830315589905
6500.6500650065,-2.43857192993164
6600.6600660066,-2.60149145126343
6700.6700670067,-2.75632667541504
6800.6800680068,-2.90307760238647
6900.6900690069,-3.04174423217773
7000.700070007,-3.17306137084961
7100.7100710071,-3.29555940628052
7200.7200720072,-3.42540669441223
7300.7300730073,-3.56701302528381
7400.7400740074,-3.72037839889526
7500.7500750075,-3.885502576828
7600.7600760076,-3.92936253547668
7700.7700770077,-3.92692112922668
7800.7800780078,-3.92594981193542
7900.7900790079,-3.92644834518433
8000.800080008,-3.9387059211731
8100.8100810081,-3.94581890106201
8200.8200820082,-3.91324520111084
8300.8300830083,-3.89243054389954
8400.8400840084,-3.88410973548889
8500.8500850085,-3.88460826873779
8600.8600860086,-3.89172124862671
8700.8700870087,-3.90250897407532
8800.8800880088,-3.85891127586365
8900.8900890089,-3.83442187309265
9000.900090009,-3.82829976081848
9100.9100910091,-3.83176374435425
9200.9200920092,-3.85066175460815
9300.9300930093,-3.88940286636353
9400.9400940094,-3.89066219329834
9500.9500950095,-3.90221071243286
9600.9600960096,-3.92919278144836
9700.9700970097,-3.93780159950256
9800.9800980098,-3.93685626983643
9900.9900990099,-3.91680240631104
10001.00010001,-3.88278484344482
10101.0101010101,-3.86420083045959
10201.0201020102,-3.8617856502533
10301.0301030103,-3.85716557502747
10401.0401040104,-3.83270215988159
10501.0501050105,-3.82514238357544
10601.0601060106,-3.82713651657104
10701.0701070107,-3.8408899307251
10801.0801080108,-3.87081170082092
10901.0901090109,-3.86766147613525
11001.100110011,-3.87186074256897
11101.1101110111,-3.8907585144043
11201.1201120112,-3.92582511901855
11301.1301130113,-3.96162629127502
11401.1401140114,-3.96509051322937
11501.1501150115,-3.93915724754334
11601.1601160116,-3.92939257621765
11701.1701170117,-3.92991709709167
11801.1801180118,-3.91133308410645
11901.1901190119,-3.89568901062012
12001.200120012,-3.89327383041382
12101.2101210121,-3.86293077468872
12201.2201220122,-3.83846735954285
12301.2301230123,-3.83017253875732
12401.2401240124,-3.83069705963135
12501.2501250125,-3.84298062324524
12601.2601260126,-3.8714325428009
12701.2701270127,-3.91531825065613
12801.2801280128,-3.89893913269043
12901.2901290129,-3.88256001472473
13001.300130013,-3.88087964057922
13101.3101310131,-3.85200667381287
13201.3201320132,-3.82607340812683
13301.3301330133,-3.81557369232178
13401.3401340134,-3.81536340713501
13501.3501350135,-3.82617688179016
13601.3601360136,-3.85315895080566
13701.3701370137,-3.89557480812073
13801.3801380138,-3.93652081489563
13901.3901390139,-3.95468378067017
14001.400140014,-3.96770215034485
14101.4101410141,-3.92339539527893
14201.4201420142,-3.89305257797241
14301.4301430143,-3.88034796714783
14401.4401440144,-3.87940263748169
14501.4501450145,-3.88727641105652
14601.4601460146,-3.87016248703003
14701.4701470147,-3.86407256126404
14801.4801480148,-3.86606669425964
14901.4901490149,-3.85556721687317
15001.500150015,-3.84359765052795
15101.5101510151,-3.84265232086182
15201.5201520152,-3.85126090049744
15301.5301530153,-3.87603831291199
15401.5401540154,-3.85451459884644
15501.5501550155,-3.84034037590027
15601.5601560156,-3.83939504623413
15701.5701570157,-3.84653377532959
15801.5801580158,-3.86984133720398
15901.5901590159,-3.90858244895935
16001.600160016,-3.93115496635437
16101.6101610161,-3.89346265792847
16201.6201620162,-3.86899924278259
16301.6301630163,-3.86070466041565
16401.6401640164,-3.86196398735046
16501.6501650165,-3.87571716308594
16601.6601660166,-3.90490412712097
16701.6701670167,-3.94952487945557
16801.6801680168,-3.92579627037048
16901.6901690169,-3.90721249580383
17001.700170017,-3.90553212165833
17101.7101710171,-3.90973114967346
17201.7201720172,-3.93009901046753
17301.7301730173,-3.9475269317627
17401.7401740174,-3.9414370059967
17501.7501750175,-3.90300965309143
17601.7601760176,-3.87928128242493
17701.7701770177,-3.87172150611877
17801.7801780178,-3.87298083305359
17901.7901790179,-3.88746905326843
18001.800180018,-3.88431882858276
18101.8101810181,-3.88263845443726
18201.8201820182,-3.88830757141113
18301.8301830183,-3.90867519378662
18401.8401840184,-3.925368309021
18501.8501850185,-3.92295289039612
18601.8601860186,-3.91686296463013
18701.8701870187,-3.88284540176392
18801.8801880188,-3.86426138877869
18901.8901890189,-3.86111116409302
19001.900190019,-3.86531043052673
19101.9101910191,-3.88420820236206
19201.9201920192,-3.90457582473755
19301.9301930193,-3.8859920501709
19401.9401940194,-3.88210678100586
19501.9501950195,-3.88557100296021
19601.9601960196,-3.90373396873474
19701.9701970197,-3.91307759284973
19801.9801980198,-3.91213226318359
19901.9901990199,-3.91927099227905
20002.00020002,-3.90142202377319
20102.0102010201,-3.89827179908752
20202.0202020202,-3.90173602104187
20302.0302030203,-3.92063403129578
20402.0402040204,-3.92409801483154
20502.0502050205,-3.91065883636475
20602.0602060206,-3.90971326828003
20702.0702070207,-3.91758704185486
20802.0802080208,-3.91076231002808
20902.0902090209,-3.90173244476318
21002.100210021,-3.90225696563721
21102.1102110211,-3.91527533531189
21202.1202120212,-3.94372725486755
21302.1302130213,-3.94498682022095
21402.1402140214,-3.94992089271545
21502.1502150215,-3.97028851509094
21602.1602160216,-3.93921065330505
21702.1702170217,-3.91327738761902
21802.1802180218,-3.90277791023254
21902.1902190219,-3.90330219268799
22002.200220022,-3.897212266922
22102.2102210221,-3.88230299949646
22202.2202220222,-3.87988781929016
22302.2302230223,-3.88629174232483
22402.2402240224,-3.87579202651978
22502.2502250225,-3.8652925491333
22602.2602260226,-3.86508202552795
22702.2702270227,-3.87663054466248
22802.2802280228,-3.90361261367798
22902.2902290229,-3.94602847099304
23002.300230023,-3.94140839576721
23102.3102310231,-3.91694498062134
23202.3202320232,-3.91012001037598
23302.3302330233,-3.91137933731079
23402.3402340234,-3.92586755752563
23502.3502350235,-3.91904282569885
23602.3602360236,-3.91515755653381
23702.3702370237,-3.91862177848816
23802.3802380238,-3.90812206268311
23902.3902390239,-3.89615273475647
24002.400240024,-3.89667701721191
24102.4102410241,-3.90749073028564
24202.4202420242,-3.93300294876099
24302.4302430243,-3.97541880607605
24402.4402440244,-3.97741317749023
24502.4502450245,-3.93972086906433
24602.4602460246,-3.91819715499878
24702.4702470247,-3.91063737869263
24802.4802480248,-3.9133665561676
24902.4902490249,-3.90580677986145
25002.500250025,-3.88942766189575
25102.5102510251,-3.88701224327087
25202.5202520252,-3.89268136024475
25302.5302530253,-3.91378402709961
25402.5402540254,-3.91430830955505
25502.5502550255,-3.91409802436829
25602.5602560256,-3.92564630508423
25702.5702570257,-3.8989782333374
25802.5802580258,-3.88480401039124
25902.5902590259,-3.88312363624573
26002.600260026,-3.89026236534119
26102.6102610261,-3.91210007667542
26202.6202620262,-3.93393754959106
26302.6302630263,-3.93519711494446
26402.6402640264,-3.92543244361877
26502.6502650265,-3.90684843063354
26602.6602660266,-3.90296316146851
26702.6702670267,-3.90642738342285
26802.6802680268,-3.92532539367676
26902.6902690269,-3.95892190933228
27002.700270027,-3.98663902282715
27102.7102710271,-3.95629620552063
27202.7202720272,-3.94212174415588
27302.7302730273,-3.94044137001038
27402.7402740274,-3.94831514358521
27502.7502750275,-3.9245867729187
27602.7602760276,-3.90600299835205
27702.7702770277,-3.9028525352478
27802.7802780278,-3.90705180168152
27902.7902790279,-3.92080497741699
28002.800280028,-3.91030550003052
28102.8102810281,-3.91009497642517
28202.8202820282,-3.92090845108032
28302.8302830283,-3.93833661079407
28402.8402840284,-3.92857193946838
28502.8502850285,-3.92909622192383
28602.8602860286,-3.94137978553772
28702.8702870287,-3.94190406799316
28802.8802880288,-3.93581414222717
28902.8902890289,-3.93854331970215
29002.900290029,-3.91701984405518
29102.9102910291,-3.90211057662964
29202.9202920292,-3.90043020248413
29302.9302930293,-3.9068341255188
29402.9402940294,-3.92867183685303
29502.9502950295,-3.96667790412903
29602.9602960296,-3.96426272392273
29702.9702970297,-3.93685936927795
29802.9802980298,-3.92415499687195
29902.9902990299,-3.9239444732666
30003.00030003,-3.93402314186096
30103.0103010301,-3.92058372497559
30203.0203020302,-3.9137589931488
30303.0303030303,-3.91501832008362
30403.0403040304,-3.92950654029846
30503.0503050305,-3.93958520889282
30603.0603060306,-3.93202519416809
30703.0703070307,-3.93254971504211
30803.0803080308,-3.94409823417664
30903.0903090309,-3.91081571578979
31003.100310031,-3.89370155334473
31103.1103110311,-3.89128637313843
31203.1203120312,-3.89622020721436
31303.1303130313,-3.91658806800842
31403.1403140314,-3.90535354614258
31503.1503150315,-3.9058780670166
31603.1603160316,-3.91522169113159
31703.1703170317,-3.9201557636261
31803.1803180318,-3.91700553894043
31903.1903190319,-3.92120456695557
32003.200320032,-3.94010233879089
32103.2103210321,-3.97516894340515
32203.2203220322,-3.96025967597961
32303.2303230323,-3.92330241203308
32403.2403240324,-3.90324854850769
32503.2503250325,-3.89789342880249
32603.2603260326,-3.90135765075684
32703.2703270327,-3.91805076599121
32803.2803280328,-3.93106913566589
32903.2903290329,-3.93159365653992
33003.300330033,-3.93211793899536
33103.3103310331,-3.91206431388855
33203.3203320332,-3.90670919418335
33303.3303330333,-3.90943837165833
33403.3403340334,-3.9261314868927
33503.3503350335,-3.95899319648743
33603.3603360336,-3.94408392906189
33703.3703370337,-3.93137955665588
33803.3803380338,-3.93190383911133
33903.3903390339,-3.9412477016449
34003.400340034,-3.92266368865967
34103.4103410341,-3.91657376289368
34203.4203420342,-3.91856813430786
34303.4303430343,-3.93452620506287
34403.4403440344,-3.96003842353821
34503.4503450345,-3.9583580493927
34603.4603460346,-3.96476197242737
34703.4703470347,-3.9865996837616
34803.4803480348,-3.98418426513672
34903.4903490349,-3.94869685173035
35003.500350035,-3.92937803268433
35103.5103510351,-3.9247579574585
35203.5203520352,-3.92748713493347
35303.5303530353,-3.94565010070801
35403.5403540354,-3.932945728302
35503.5503550355,-3.93273520469666
35603.5603560356,-3.94207882881165
35703.5703570357,-3.95730209350586
35803.5803580358,-3.95194697380066
35903.5903590359,-3.95467615127563
36003.600360036,-3.97063446044922
36103.6103610361,-3.96527934074402
36203.6203620362,-3.95183992385864
36303.6303630363,-3.9508945941925
36403.6403640364,-3.95876836776733
36503.6503650365,-3.97693133354187
36603.6603660366,-3.95834732055664
36703.6703670367,-3.95446228981018
36803.6803680368,-3.94322752952576
36903.6903690369,-3.91802930831909
37003.700370037,-3.90973448753357
37103.7103710371,-3.91099381446838
37203.7203720372,-3.92401218414307
37303.7303730373,-3.9531991481781
37403.7403740374,-3.99708485603333
37503.7503750375,-3.95939254760742
37603.7603760376,-3.93713402748108
37703.7703770377,-3.92957425117493
37803.7803780378,-3.93156862258911
37903.7903790379,-3.93797254562378
38003.800380038,-3.92526817321777
38103.8103810381,-3.92505764961243
38203.8203820382,-3.93366622924805
38303.8303830383,-3.95770883560181
38403.8403840384,-3.96631741523743
38503.8503850385,-3.9367094039917
38603.8603860386,-3.92400503158569
38703.8703870387,-3.92379450798035
38803.8803880388,-3.93240332603455
38903.8903890389,-3.9571807384491
39003.900390039,-3.95770525932312
39103.9103910391,-3.9604344367981
39203.9203920392,-3.93450117111206
39303.9303930393,-3.92032694816589
39403.9403940394,-3.91938138008118
39503.9503950395,-3.92725515365601
39603.9603960396,-3.9505627155304
39703.9703970397,-3.97901463508606
39803.9803980398,-3.95675611495972
39903.9903990399,-3.94993114471436
40004.00040004,-3.95266056060791
40104.0104010401,-3.93848609924316
40204.0204020402,-3.92504692077637
40304.0304030403,-3.92410135269165
40404.0404040404,-3.93271017074585
40504.0504050405,-3.95675253868103
40604.0604060406,-3.96095156669617
40704.0704070407,-3.96294593811035
40804.0804080408,-3.94803667068481
40904.0904090409,-3.9316577911377
41004.100410041,-3.92997741699219
41104.1104110411,-3.93491148948669
41204.1204120412,-3.95601415634155
41304.1304130413,-3.95874333381653
41404.1404140414,-3.9401593208313
41504.1504150415,-3.93700909614563
41604.1604160416,-3.94120836257935
41704.1704170417,-3.95643138885498
41804.1804180418,-3.94372701644897
41904.1904190419,-3.94278168678284
42004.200420042,-3.95065546035767
42104.2104210421,-3.95999908447266
42204.2204220422,-3.95611381530762
42304.2304230423,-3.95957803726196
42404.2404240424,-3.9777410030365
42504.2504250425,-3.95915722846985
42604.2604260426,-3.95012736320496
42704.2704270427,-3.95138669013977
42804.2804280428,-3.96367025375366
42904.2904290429,-3.96198987960815
43004.300430043,-3.95883965492249
43104.3104310431,-3.96303868293762
43204.3204320432,-3.97458720207214
43304.3304330433,-3.96188282966614
43404.3404340434,-3.96093726158142
43504.3504350435,-3.96219682693481
43604.3604360436,-3.94067311286926
43704.3704370437,-3.9338481426239
43804.3804380438,-3.93584251403809
43904.3904390439,-3.9510657787323
44004.400440044,-3.94865036010742
44104.4104410441,-3.94623517990112
44204.4204420442,-3.95263910293579
44304.4304430443,-3.97447657585144
44404.4404440444,-3.98676013946533
44504.4504450445,-3.9681761264801
44604.4604460446,-3.96502590179443
44704.4704470447,-3.9640805721283
44804.4804480448,-3.93741226196289
44904.4904490449,-3.92691254615784
45004.500450045,-3.92743706703186
45104.5104510451,-3.93825054168701
45204.5204520452,-3.96082329750061
45304.5304530453,-3.95032358169556
45404.5404540454,-3.95011305809021
45504.5504550455,-3.96092653274536
45604.5604560456,-3.98717379570007
45704.5704570457,-4.02958965301514
45804.5804580458,-3.99704194068909
45904.5904590459,-3.97478342056274
46004.600460046,-3.96722364425659
46104.6104610461,-3.9692177772522
46204.6204620462,-3.9557785987854
46304.6304630463,-3.93719458580017
46404.6404640464,-3.9340443611145
46504.6504650465,-3.93824338912964
46604.6604660466,-3.95640635490417
46704.6704670467,-3.94811153411865
46804.6804680468,-3.94863605499268
46904.6904690469,-3.96091938018799
47004.700470047,-3.95703434944153
47104.7104710471,-3.94286012649536
47204.7204720472,-3.94117975234985
47304.7304730473,-3.94831848144531
47404.7404740474,-3.96207189559937
47504.7504750475,-3.95377707481384
47604.7604760476,-3.95503640174866
47704.7704770477,-3.96805477142334
47804.7804780478,-3.96049499511719
47904.7904790479,-3.95881462097168
48004.800480048,-3.96448349952698
48104.8104810481,-3.97162246704102
48204.8204820482,-3.95083379745483
48304.8304830483,-3.94621348381042
48404.8404840484,-3.94894289970398
48504.8504850485,-3.96563601493835
48604.8604860486,-3.95954585075378
48704.8704870487,-3.95713067054749
48804.8804880488,-3.96132969856262
48904.8904890489,-3.96920347213745
49004.900490049,-3.95796895027161
49104.9104910491,-3.95849347114563
49204.9204920492,-3.96930694580078
49304.9304930493,-3.9918794631958
49404.9404940494,-3.96006679534912
49504.9504950495,-3.94368767738342
49604.9604960496,-3.94127249717712
49704.9704970497,-3.94694137573242
49804.9804980498,-3.95702004432678
49904.9904990499,-3.94799017906189
50005.00050005,-3.94848680496216
50105.0105010501,-3.960209608078
50205.0205020502,-3.9587037563324
50305.0305030503,-3.95425820350647
50405.0405040504,-3.95716190338135
50505.0505050505,-3.9608006477356
50605.0605060506,-3.94092130661011
50705.0705070507,-3.93647575378418
50805.0805080508,-3.93937945365906
50905.0905090509,-3.9577169418335
51005.100510051,-3.98119878768921
51105.1105110511,-3.97307848930359
51205.1205120512,-3.97451233863831
51305.1305130513,-3.9619824886322
51405.1405140514,-3.94577789306641
51505.1505150515,-3.94280219078064
51605.1605160516,-3.94864559173584
51705.1705170517,-3.96036863327026
51805.1805180518,-3.94416403770447
51905.1905190519,-3.94192314147949
52005.200520052,-3.9470317363739
52105.2105210521,-3.93523669242859
52205.2205220522,-3.92417669296265
52305.2305230523,-3.92340564727783
52405.2405240524,-3.93439388275146
52505.2505250525,-3.94611668586731
52605.2605260526,-3.94167113304138
52705.2705270527,-3.94530987739563
52805.2805280528,-3.9629123210907
52905.2905290529,-3.99668335914612
53005.300530053,-3.98782801628113
53105.3105310531,-3.96353912353516
53205.3205320532,-3.95468401908875
53305.3305330533,-3.95538282394409
53405.3405340534,-3.9604914188385
53505.3505350535,-3.94208192825317
53605.3605360536,-3.93837141990662
53705.3705370537,-3.94127511978149
53805.3805380538,-3.95961260795593
53905.3905390539,-3.95002222061157
