Trace
Swept SA
A.16.09,N9010A
544 B25 B40 EXM FS1 MPB P44 RTL ,01
Segment,0
Number of Points,10000
Sweep Time,0.0013332
Start Frequency,0
Stop Frequency,10000000
Average Count,50
Average Type,LogPower(Video)
RBW,56000
RBW Filter,Gaussian
RBW Filter BW,3dB
VBW,560000
Sweep Type,Swept
X Axis Scale,Lin
PreAmp State,Off
PreAmp Band,Low
Trigger Source,Free
Trigger Level,1.2
Trigger Slope,Positive
Trigger Delay,0
Phase Noise Optimization,Narrow
Swept If Gain,Low
FFT If Gain,Autorange
RF Coupling,DC
FFT Width,411900
Ext Ref,10000000
Input,RF
RF Calibrator,Off
Attenuation,10
Ref Level Offset,0
External Gain,0
Trace Type,Maxhold
Detector,Peak
Trace Math,Off
Trace Math Oper1,Trace5
Trace Math Oper2,Trace6
Trace Math Offset,0
Normalize,Off
Trace Name,Trace1
X Axis Units,Hz
Y Axis Units,dBm
DATA
0,-4.09187364578247
1000.100010001,-4.09709978103638
2000.200020002,-4.11147212982178
3000.300030003,-4.13368368148804
4000.400040004,-4.16242742538452
5000.500050005,-4.19770479202271
6000.600060006,-4.24212741851807
7000.700070007,-4.29308319091797
8000.800080008,-4.35187816619873
9000.900090009,-4.41851711273193
10001.00010001,-4.49692821502686
11001.100110011,-4.58317899703979
12001.200120012,-4.67726945877075
13001.300130013,-4.77919864654541
14001.400140014,-4.88766098022461
15001.500150015,-5.00396251678467
16001.600160016,-5.12810325622559
17001.700170017,-5.26008319854736
18001.800180018,-5.40120935440063
19001.900190019,-5.54886817932129
20002.00020002,-5.70567274093628
21002.100210021,-5.86770391464233
22002.200220022,-6.03757381439209
23002.300230023,-6.21658992767334
24002.400240024,-6.40344572067261
25002.500250025,-6.59814023971558
26002.600260026,-6.80067443847656
27002.700270027,-7.01104784011841
28002.800280028,-7.22926044464111
29002.900290029,-7.45531225204468
30003.00030003,-7.62518262863159
31003.100310031,-7.67354345321655
32003.200320032,-7.72451734542847
33003.300330033,-7.78071737289429
34003.400340034,-7.84083700180054
35003.500350035,-7.90618276596069
36003.600360036,-7.97675466537476
37003.700370037,-8.05255317687988
38003.800380038,-8.13357734680176
39003.900390039,-8.22113513946533
40004.00040004,-8.2747220993042
41004.100410041,-8.28519248962402
42004.200420042,-8.30350303649902
43004.300430043,-8.32965183258057
44004.400440044,-8.36233425140381
45004.500450045,-8.40285587310791
46004.600460046,-8.44990921020508
47004.700470047,-8.50349617004395
48004.800480048,-8.56492233276367
49004.900490049,-8.6328821182251
50005.00050005,-8.70734596252441
51005.100510051,-8.78276538848877
52005.200520052,-8.8660249710083
53005.300530053,-8.95581722259521
54005.400540054,-9.05214214324951
55005.500550055,-9.15369319915771
56005.600560056,-9.26308345794678
57005.700570057,-9.38031387329102
58005.800580058,-9.46357345581055
59005.900590059,-9.53507328033447
60006.00060006,-9.55561828613281
61006.100610061,-9.54611206054688
62006.200620062,-9.54313945770264
63006.300630063,-9.54800510406494
64006.400640064,-9.5620174407959
65006.500650065,-9.58778858184814
66006.600660066,-9.62139892578125
67006.700670067,-9.62234592437744
68006.800680068,-9.61937236785889
69006.900690069,-9.62162590026855
70007.00070007,-9.63041114807129
71007.100710071,-9.64573001861572
72007.200720072,-9.66758155822754
73007.300730073,-9.69596576690674
74007.400740074,-9.72957611083984
75007.500750075,-9.76841259002686
76007.600760076,-9.78634452819824
77007.700770077,-9.79251670837402
78007.800780078,-9.80783557891846
79007.900790079,-9.82446098327637
80008.00080008,-9.83455276489258
81008.100810081,-9.85117816925049
82008.200820082,-9.87433624267578
83008.300830083,-9.90402698516846
84008.400840084,-9.93110466003418
85008.500850085,-9.93727684020996
86008.600860086,-9.94736957550049
87008.700870087,-9.94570350646973
88008.800880088,-9.94926261901855
89008.900890089,-9.95935535430908
90009.00090009,-9.97728729248047
91009.100910091,-10.0030574798584
92009.200920092,-10.0340547561646
93009.300930093,-10.0323886871338
94009.400940094,-10.0346412658691
95009.500950095,-10.0447340011597
96009.600960096,-10.0391473770142
97009.700970097,-10.0322551727295
98009.800980098,-10.0305881500244
99009.900990099,-10.0315351486206
100010.0010001,-10.0377016067505
101010.101010101,-10.0419273376465
102010.201020102,-10.0291681289673
103010.301030103,-10.0229415893555
104010.401040104,-10.0219421386719
105010.501050105,-10.0261678695679
106010.601060106,-10.0395402908325
107010.701070107,-10.0359268188477
108010.801080108,-10.0310068130493
109010.901090109,-10.0247812271118
110011.00110011,-10.0224742889404
111011.101110111,-10.0267000198364
112011.201120112,-10.0270071029663
113011.301130113,-10.022087097168
114011.401140114,-10.0197801589966
115011.501150115,-10.0213937759399
116011.601160116,-10.0269260406494
117011.701170117,-10.0206995010376
118011.801180118,-10.019700050354
119011.901190119,-10.02392578125
120012.00120012,-10.028151512146
121012.101210121,-10.0193128585815
122012.201220122,-10.0156993865967
123012.301230123,-10.0160055160522
124012.401240124,-10.024151802063
125012.501250125,-10.025764465332
126012.601260126,-10.0260705947876
127012.701270127,-10.0316038131714
128012.801280128,-10.0253772735596
129012.901290129,-10.0191507339478
130013.00130013,-10.0181512832642
131013.101310131,-10.0158443450928
132013.201320132,-10.0109243392944
133013.301330133,-10.0099248886108
134013.401340134,-10.0141506195068
135013.501350135,-10.0144567489624
136013.601360136,-10.0095376968384
137013.701370137,-10.0098438262939
138013.801380138,-10.0153760910034
139013.901390139,-10.0117635726929
140014.00140014,-10.0042304992676
141014.101410141,-10.0032300949097
142014.201420142,-10.00745677948
143014.301430143,-10.0077629089355
144014.401440144,-9.99892330169678
145014.501450145,-9.99661636352539
146014.601460146,-9.99953651428223
147014.701470147,-10.0089883804321
148014.801480148,-10.0145215988159
149014.901490149,-10.0109081268311
150015.00150015,-10.0112142562866
151015.101510151,-10.0154409408569
152015.201520152,-10.014440536499
153015.301530153,-10.0082139968872
154015.401540154,-10.0059080123901
155015.501550155,-9.99576187133789
156015.601560156,-9.99214839935303
157015.701570157,-9.99245548248291
158015.801580158,-9.99929428100586
159015.901590159,-9.995680809021
160016.00160016,-9.9894552230835
161016.101610161,-9.98845481872559
162016.201620162,-9.99398708343506
163016.301630163,-10.0047464370728
164016.401640164,-9.99460029602051
165016.501650165,-9.98837375640869
166016.601660166,-9.9873743057251
167016.701670167,-9.99421310424805
168016.801680168,-9.98929309844971
169016.901690169,-9.98437404632568
170017.00170017,-9.98468017578125
171017.101710171,-9.9915189743042
172017.201720172,-9.98921298980713
173017.301730173,-9.98298645019531
174017.401740174,-9.9819860458374
175017.501750175,-9.98621273040771
176017.601760176,-9.99827766418457
177017.701770177,-9.99466419219971
178017.801780178,-9.99497127532959
179017.901790179,-10.0018100738525
180018.00180018,-9.99950408935547
181018.101810181,-9.99458408355713
182018.201820182,-9.98313140869141
183018.301830183,-9.97690486907959
184018.401840184,-9.975905418396
185018.501850185,-9.98013114929199
186018.601860186,-9.98696994781494
187018.701870187,-9.97682476043701
188018.801880188,-9.97321128845215
189018.901890189,-9.97482395172119
190019.00190019,-9.98166370391846
191019.101910191,-9.97413063049316
192019.201920192,-9.96921062469482
193019.301930193,-9.96821117401123
194019.401940194,-9.97504997253418
195019.501950195,-9.97404956817627
196019.601960196,-9.96782398223877
197019.701970197,-9.96682357788086
198019.801980198,-9.97235584259033
199019.901990199,-9.9844217300415
200020.0020002,-9.99129486083984
201020.102010201,-9.98416614532471
202020.202020202,-9.98356914520264
203020.302030203,-9.98558616638184
204020.402040204,-9.99152183532715
205020.502050205,-9.97916698455811
206020.602060206,-9.97203731536865
207020.702070207,-9.9714412689209
208020.802080208,-9.97476387023926
209020.902090209,-9.98462009429932
210021.00210021,-9.98533058166504
211021.102110211,-9.97950744628906
212021.202120212,-9.98021793365479
213021.302130213,-9.9861536026001
214021.402140214,-9.99992942810059
215021.502150215,-9.99280071258545
216021.602160216,-9.985671043396
217021.702170217,-9.98507499694824
218021.802180218,-9.98970413208008
219021.902190219,-10.0008668899536
220022.00220022,-9.99112415313721
221022.102210221,-9.98660850524902
222022.202220222,-9.98601150512695
223022.302230223,-9.99194812774658
224022.402240224,-9.99527168273926
225022.502250225,-9.99206161499023
226022.602260226,-9.99407863616943
227022.702270227,-10.0013208389282
228022.802280228,-10.0177097320557
229022.902290229,-10.0223398208618
230023.00230023,-10.0191297531128
231023.102310231,-10.0198402404785
232023.202320232,-10.0231637954712
233023.302330233,-10.0212602615356
234023.402340234,-10.0075988769531
235023.502350235,-10.0030822753906
236023.602360236,-10.0024862289429
237023.702370237,-10.0071153640747
238023.802380238,-10.0195846557617
239023.902390239,-10.0124549865723
240024.00240024,-10.0118589401245
241024.102410241,-10.0151824951172
242024.202420242,-10.0263442993164
243024.302430243,-10.0179090499878
244024.402440244,-10.0146989822388
245024.502450245,-10.0154094696045
246024.602460246,-10.0226516723633
247024.702470247,-10.0272817611694
248024.802480248,-10.0227661132813
249024.902490249,-10.0234756469727
250025.00250025,-10.0281057357788
251025.102510251,-10.0418815612793
252025.202520252,-10.0530433654785
253025.302530253,-10.0472211837769
254025.402540254,-10.0479307174683
255025.502550255,-10.0473346710205
256025.602560256,-10.0480442047119
257025.702570257,-10.0474481582642
258025.802580258,-10.0337858200073
259025.902590259,-10.0305767059326
260026.00260026,-10.031286239624
261026.102610261,-10.0372228622437
262026.202620262,-10.0405464172363
263026.302630263,-10.0373363494873
264026.402640264,-10.038046836853
265026.502650265,-10.0465965270996
266026.602660266,-10.0459995269775
267026.702670267,-10.0414838790894
268026.802680268,-10.0408868789673
269026.902690269,-10.0455169677734
270027.00270027,-10.0527591705322
271027.102710271,-10.0456304550171
272027.202720272,-10.0411138534546
273027.302730273,-10.0418243408203
274027.402740274,-10.0477609634399
275027.502750275,-10.0602293014526
276027.602760276,-10.051794052124
277027.702770277,-10.048583984375
278027.802780278,-10.0492944717407
279027.902790279,-10.0578441619873
280028.00280028,-10.0716190338135
281028.102810281,-10.0762491226196
282028.202820282,-10.0717325210571
283028.302830283,-10.061990737915
284028.402840284,-10.0574741363525
285028.502850285,-10.0594911575317
286028.602860286,-10.0615081787109
287028.702870287,-10.055685043335
288028.802880288,-10.0550889968872
289028.902890289,-10.0584115982056
290029.00290029,-10.0643482208252
291029.102910291,-10.068977355957
292029.202920292,-10.0631551742554
293029.302930293,-10.0625581741333
294029.402940294,-10.065881729126
295029.502950295,-10.0692052841187
296029.602960296,-10.0646886825562
297029.702970297,-10.0653991699219
298029.802980298,-10.0687217712402
299029.902990299,-10.0759649276733
300030.0030003,-10.0714244842529
301030.103010301,-10.0713243484497
302030.203020302,-10.0751438140869
303030.303030303,-10.0881099700928
304030.403040304,-10.0997686386108
305030.503050305,-10.0944423675537
306030.603060306,-10.0943422317505
307030.703070307,-10.0837898254395
308030.803080308,-10.0732374191284
309030.903090309,-10.0679111480713
310031.00310031,-10.0691175460815
311031.103110311,-10.0690183639526
312031.203120312,-10.0715312957764
313031.303130313,-10.0688180923462
314031.403140314,-10.0674114227295
315031.503150315,-10.0712308883667
316031.603160316,-10.0750503540039
317031.703170317,-10.0697240829468
318031.803180318,-10.0683183670044
319031.903190319,-10.0708312988281
320032.00320032,-10.0759572982788
321032.103210321,-10.0706310272217
322032.203220322,-10.0679178237915
323032.303230323,-10.0691242218018
324032.403240324,-10.0768642425537
325032.503250325,-10.0702314376831
326032.603260326,-10.0662117004395
327032.703270327,-10.0674180984497
328032.803280328,-10.0751571655273
329032.903290329,-10.0763635635376
330033.00330033,-10.0801830291748
331033.103310331,-10.0826969146729
332033.203320332,-10.0773706436157
333033.303330333,-10.0772705078125
334033.403340334,-10.0823965072632
335033.503350335,-10.0757637023926
336033.603360336,-10.0678243637085
337033.703370337,-10.0664176940918
338033.803380338,-10.070237159729
339033.903390339,-10.0805902481079
340034.00340034,-10.0739574432373
341034.103410341,-10.0712442398071
342034.203420342,-10.0724506378174
343034.303430343,-10.0788831710815
344034.403440344,-10.0709438323975
345034.503450345,-10.0682306289673
346034.603460346,-10.0707445144653
347034.703470347,-10.0797901153564
348034.803480348,-10.0731573104858
349034.903490349,-10.0704441070557
350035.00350035,-10.0716505050659
351035.103510351,-10.0780830383301
352035.203520352,-10.085823059082
353035.303530353,-10.0896425247192
354035.403540354,-10.0830097198486
355035.503550355,-10.0816030502319
356035.603560356,-10.0854225158691
357035.703570357,-10.0931625366211
358035.803580358,-10.0813026428223
359035.903590359,-10.074670791626
360036.00360036,-10.0745706558228
361036.103610361,-10.07839012146
362036.203620362,-10.090048789978
363036.303630363,-10.0886421203613
364036.403640364,-10.0780897140503
365036.503650365,-10.0740699768066
366036.603660366,-10.0752773284912
367036.703670367,-10.0817098617554
368036.803680368,-10.0776901245117
369036.903690369,-10.0723638534546
370037.00370037,-10.0722637176514
371037.103710371,-10.0773897171021
372037.203720372,-10.0903558731079
373037.303730373,-10.0798034667969
374037.403740374,-10.0744771957397
375037.503750375,-10.0743770599365
376037.603760376,-10.0808095932007
377037.703770377,-10.0780963897705
378037.803780378,-10.0714635848999
379037.903790379,-10.0713634490967
380038.00380038,-10.0764904022217
381038.103810381,-10.0894556045532
382038.203820382,-10.0906620025635
383038.303830383,-10.0879487991333
384038.403840384,-10.090461730957
385038.503850385,-10.098201751709
386038.603860386,-10.0928754806519
387038.703870387,-10.0770969390869
388038.803880388,-10.0717706680298
389038.903890389,-10.0703639984131
390039.00390039,-10.0741834640503
391039.103910391,-10.0858421325684
392039.203920392,-10.0779027938843
393039.303930393,-10.0751895904541
394039.403940394,-10.0777034759521
395039.503950395,-10.0854425430298
396039.603960396,-10.0761966705322
397039.703970397,-10.0721769332886
398039.803980398,-10.0733833312988
399039.903990399,-10.0811223983765
400040.0040004,-10.0771074295044
401040.104010401,-10.0731973648071
402040.204020402,-10.0732078552246
403040.304030403,-10.078444480896
404040.404040404,-10.0928258895874
405040.504050405,-10.0980625152588
406040.604060406,-10.092845916748
407040.704070407,-10.0928564071655
408040.804080408,-10.0980920791626
409040.904090409,-10.0954895019531
410041.00410041,-10.0798206329346
411041.104110411,-10.0732975006104
412041.204120412,-10.0720014572144
413041.304130413,-10.0746240615845
414041.404140414,-10.0850868225098
415041.504150415,-10.0772571563721
416041.604160416,-10.0746545791626
417041.704170417,-10.0772771835327
418041.804180418,-10.0864334106445
419041.904190419,-10.0812168121338
420042.00420042,-10.0773077011108
421042.104210421,-10.0786237716675
422042.204220422,-10.0864734649658
423042.304230423,-10.102162361145
424042.404240424,-10.0930261611938
425042.504250425,-10.0825834274292
426042.604260426,-10.0786743164063
427042.704270427,-10.0799903869629
428042.804280428,-10.0865335464478
429042.904290429,-10.081316947937
430043.00430043,-10.0787143707275
431043.104310431,-10.0813369750977
432043.204320432,-10.0904932022095
433043.304330433,-10.1022624969482
434043.404340434,-10.1048851013184
435043.504350435,-10.1153478622437
436043.604360436,-10.1349563598633
437043.704370437,-10.1166744232178
438043.804380438,-10.0983924865723
439043.904390439,-10.0879507064819
440044.00440044,-10.0827341079712
441044.104410441,-10.0827436447144
442044.204420442,-10.0892868041992
443044.304430443,-10.0958299636841
444044.404440444,-10.0906133651733
445044.504450445,-10.0893173217773
446044.604460446,-10.0919399261475
447044.704470447,-10.1024026870728
448044.804480448,-10.0932664871216
449044.904490449,-10.0880498886108
450045.00450045,-10.0880603790283
451045.104510451,-10.0919904708862
452045.204520452,-10.0906934738159
453045.304530453,-10.0854768753052
454045.404540454,-10.0867938995361
455045.504550455,-10.093337059021
456045.604560456,-10.1077184677124
457045.704570457,-10.1103420257568
458045.804580458,-10.1090450286865
459045.904590459,-10.1129751205444
460046.00460046,-10.1247444152832
461046.104610461,-10.115608215332
462046.204620462,-10.0999393463135
463046.304630463,-10.0934162139893
464046.404640464,-10.0921201705933
465046.504650465,-10.0947427749634
466046.604660466,-10.1052055358887
467046.704670467,-10.094762802124
468046.804680468,-10.0908536911011
469046.904690469,-10.0908632278442
470047.00470047,-10.0987129211426
471047.104710471,-10.101336479187
472047.204720472,-10.0961198806763
473047.304730473,-10.0961294174194
474047.404740474,-10.1026725769043
475047.504750475,-10.1105222702026
476047.604760476,-10.100079536438
477047.704770477,-10.0961694717407
478047.804780478,-10.0974864959717
479047.904790479,-10.10533618927
480048.00480048,-10.1014261245728
481048.104810481,-10.0975160598755
482048.204820482,-10.0988330841064
483048.304830483,-10.1079893112183
484048.404840484,-10.1223707199097
485048.504850485,-10.1171550750732
486048.604860486,-10.1184711456299
487048.704870487,-10.1250143051147
488048.804880488,-10.122410774231
489048.904890489,-10.118501663208
490049.00490049,-10.1198177337646
491049.104910491,-10.1132955551147
492049.204920492,-10.1041593551636
493049.304930493,-10.1002492904663
494049.404940494,-10.1015663146973
495049.504950495,-10.1094160079956
496049.604960496,-10.1068124771118
497049.704970497,-10.1029024124146
498049.804980498,-10.102912902832
499049.904990499,-10.1068429946899
500050.0050005,-10.1173086166382
501050.105010501,-10.1095495223999
502050.205020502,-10.1070165634155
503050.305030503,-10.1084022521973
504050.405040504,-10.1176280975342
505050.505050505,-10.1137886047363
506050.605060506,-10.111255645752
507050.705070507,-10.1113357543945
508050.805080508,-10.119255065918
509050.905090509,-10.1258678436279
510051.00510051,-10.1207218170166
511051.105110511,-10.1221084594727
512051.205120512,-10.1287212371826
513051.305130513,-10.1274948120117
514051.405140514,-10.1223487854004
515051.505150515,-10.1172018051147
516051.605160516,-10.1159753799438
517051.705170517,-10.1186685562134
518051.805180518,-10.1278944015503
519051.905190519,-10.120135307312
520052.00520052,-10.1162958145142
521052.105210521,-10.1176824569702
522052.205220522,-10.1269083023071
523052.305230523,-10.1243753433228
524052.405240524,-10.1179227828979
525052.505250525,-10.1180019378662
526052.605260526,-10.1220016479492
527052.705270527,-10.1286144256592
528052.805280528,-10.1221618652344
529052.905290529,-10.1209354400635
530053.00530053,-10.123628616333
531053.105310531,-10.1341609954834
532053.205320532,-10.1277084350586
533053.305330533,-10.1251754760742
534053.405340534,-10.1265621185303
535053.505350535,-10.1318683624268
536053.605360536,-10.1267213821411
537053.705370537,-10.1176557540894
538053.805380538,-10.115122795105
