Trace
Swept SA
A.16.09,N9010A
544 B25 B40 EXM FS1 MPB P44 RTL ,01
Segment,0
Number of Points,10000
Sweep Time,0.0013332
Start Frequency,0
Stop Frequency,10000000
Average Count,50
Average Type,LogPower(Video)
RBW,18000
RBW Filter,Gaussian
RBW Filter BW,3dB
VBW,180000
Sweep Type,Swept
X Axis Scale,Lin
PreAmp State,Off
PreAmp Band,Low
Trigger Source,Free
Trigger Level,1.2
Trigger Slope,Positive
Trigger Delay,0
Phase Noise Optimization,Narrow
Swept If Gain,Low
FFT If Gain,Autorange
RF Coupling,DC
FFT Width,411900
Ext Ref,10000000
Input,RF
RF Calibrator,Off
Attenuation,20
Ref Level Offset,0
External Gain,0
Trace Type,Maxhold
Detector,Peak
Trace Math,Off
Trace Math Oper1,Trace5
Trace Math Oper2,Trace6
Trace Math Offset,0
Normalize,Off
Trace Name,Trace1
X Axis Units,Hz
Y Axis Units,dBm
DATA
0,0.813788592815399
1000.100010001,0.617149949073792
2000.200020002,0.356196880340576
3000.300030003,0.0309293232858181
4000.400040004,-0.00924284663051367
5000.500050005,-0.0302166752517223
6000.600060006,-0.105905778706074
7000.700070007,-0.245909318327904
8000.800080008,-0.450227320194244
9000.900090009,-0.717893421649933
10001.00010001,-1.04567003250122
11001.100110011,-1.44064080715179
12001.200120012,-1.72138142585754
13001.300130013,-1.92244899272919
14001.400140014,-2.16767263412476
15001.500150015,-2.45897245407104
16001.600160016,-2.79538822174072
17001.700170017,-3.17788004875183
18001.800180018,-3.61220741271973
19001.900190019,-3.91790580749512
20002.00020002,-3.83387804031372
21002.100210021,-3.77384805679321
22002.200220022,-3.75893425941467
23002.300230023,-3.77185797691345
24002.400240024,-3.83565735816956
25002.500250025,-3.95897173881531
26002.600260026,-4.1398811340332
27002.700270027,-4.22863817214966
28002.800280028,-4.18684673309326
29002.900290029,-4.19305086135864
30003.00030003,-4.19541549682617
31003.100310031,-4.16514301300049
32003.200320032,-4.17518711090088
33003.300330033,-4.1449146270752
34003.400340034,-4.14919900894165
35003.500350035,-4.13620519638062
36003.600360036,-4.12705087661743
37003.700370037,-4.14861392974854
38003.800380038,-4.20953369140625
39003.900390039,-4.14278411865234
40004.00040004,-4.1393895149231
41004.100410041,-4.17247152328491
42004.200420042,-4.14891815185547
43004.300430043,-4.16376209259033
44004.400440044,-4.15748739242554
45004.500450045,-4.16177177429199
46004.600460046,-4.17373561859131
47004.700470047,-4.16746139526367
48004.800480048,-4.18902444839478
49004.900490049,-4.15779161453247
50005.00050005,-4.16780805587769
51005.100510051,-4.23080253601074
52005.200520052,-4.32451438903809
53005.300530053,-4.19360542297363
54005.400540054,-4.13757038116455
55005.500550055,-4.13433027267456
56005.600560056,-4.15604829788208
57005.700570057,-4.142249584198
58005.800580058,-4.16012811660767
59005.900590059,-4.11657190322876
60006.00060006,-4.11717176437378
61006.100610061,-4.13697004318237
62006.200620062,-4.10109281539917
63006.300630063,-4.10649251937866
64006.400640064,-4.16372728347778
65006.500650065,-4.09713315963745
66006.600660066,-4.09101343154907
67006.700670067,-4.09833288192749
68006.800680068,-4.07589483261108
69006.900690069,-4.08705377578735
70007.00070007,-4.0617356300354
71007.100710071,-4.06137561798096
72007.200720072,-4.06101560592651
73007.300730073,-4.04721689224243
74007.400740074,-4.06605529785156
75007.500750075,-4.03017807006836
76007.600760076,-4.03461790084839
77007.700770077,-4.09953212738037
78007.800780078,-4.23644018173218
79007.900790079,-4.10169172286987
80008.00080008,-4.0149393081665
81008.100810081,-3.99826073646545
82008.200820082,-4.01421928405762
83008.300830083,-3.98026204109192
84008.400840084,-3.98086190223694
85008.500850085,-3.98914122581482
86008.600860086,-3.98494148254395
87008.700870087,-3.99898028373718
88008.800880088,-3.94486474990845
89008.900890089,-3.944504737854
90009.00090009,-3.95662379264832
91009.100910091,-3.9581835269928
92009.200920092,-4.01733827590942
93009.300930093,-4.05153512954712
94009.400940094,-3.93598532676697
95009.500950095,-3.89434885978699
96009.600960096,-3.89590859413147
97009.700970097,-3.88306975364685
98009.800980098,-3.87695002555847
99009.900990099,-3.88234949111938
100010.0010001,-3.85702538490295
101010.101010101,-3.86658430099487
102010.201020102,-3.85790491104126
103010.301030103,-3.83290696144104
104010.401040104,-3.84246587753296
105010.501050105,-3.91057991981506
106010.601060106,-3.8260669708252
107010.701070107,-3.81258797645569
108010.801080108,-3.81446766853333
109010.901090109,-3.77603077888489
110011.00110011,-3.77887034416199
111011.101110111,-3.75867176055908
112011.201120112,-3.75191235542297
113011.301130113,-3.75475192070007
114011.401140114,-3.73935294151306
115011.501150115,-3.74987196922302
116011.601160116,-3.71047520637512
117011.701170117,-3.71235489845276
118011.801180118,-3.70175552368164
119011.901190119,-3.69499588012695
120012.00120012,-3.72855281829834
121012.101210121,-3.81490516662598
122012.201220122,-3.69391560554504
123012.301230123,-3.64587950706482
124012.401240124,-3.64679932594299
125012.501250125,-3.67267680168152
126012.601260126,-3.63040018081665
127012.701270127,-3.63131999969482
128012.801280128,-3.59576296806335
129012.901290129,-3.58708357810974
130013.00130013,-3.58800315856934
131013.101310131,-3.56588506698608
132013.201320132,-3.57832360267639
133013.301330133,-3.54948592185974
134013.401340134,-3.55040574073792
135013.501350135,-3.60604071617126
136013.601360136,-3.60600066184998
137013.701370137,-3.51284837722778
138013.801380138,-3.49265003204346
139013.901390139,-3.50508880615234
140014.00140014,-3.47817087173462
141014.101410141,-3.47717094421387
142014.201420142,-3.45121288299561
143014.301430143,-3.44445323944092
144014.401440144,-3.43865370750427
145014.501450145,-3.41557550430298
146014.601460146,-3.42801427841187
147014.701470147,-3.50668716430664
148014.801480148,-3.46729040145874
149014.901490149,-3.37701797485352
150015.00150015,-3.35873937606812
151015.101510151,-3.37309813499451
152015.201520152,-3.33466124534607
153015.301530153,-3.3346209526062
154015.401540154,-3.31250286102295
155015.501550155,-3.30382323265076
156015.601560156,-3.29994344711304
157015.701570157,-3.27302575111389
158015.801580158,-3.28162479400635
159015.901590159,-3.2527871131897
160016.00160016,-3.25178694725037
161016.101610161,-3.29878258705139
162016.201620162,-3.26514554023743
163016.301630163,-3.20751023292542
164016.401640164,-3.2036304473877
165016.501650165,-3.19015145301819
166016.601660166,-3.17763233184814
167016.701670167,-3.18431162834167
168016.801680168,-3.14107513427734
169016.901690169,-3.14103484153748
170017.00170017,-3.14387440681458
171017.101710171,-3.09967803955078
172017.201720172,-3.09963798522949
173017.301730173,-3.15431308746338
174017.401740174,-3.14179396629334
175017.501750175,-3.05824089050293
176017.601760176,-3.0428421497345
177017.701770177,-3.02744340896606
178017.801780178,-3.01588416099548
179017.901790179,-3.01200437545776
180018.00180018,-2.98700618743896
181018.101810181,-2.99752521514893
182018.201820182,-2.96292805671692
183018.301830183,-2.96288776397705
184018.401840184,-2.93021035194397
185018.501850185,-2.91865134239197
186018.601860186,-2.94068908691406
187018.701870187,-3.00016379356384
188018.801880188,-2.89741253852844
189018.901890189,-2.86665511131287
190019.00190019,-2.87429428100586
191019.101910191,-2.83393740653992
192019.201920192,-2.82909774780273
193019.301930193,-2.85017585754395
194019.401940194,-2.7935004234314
195019.501950195,-2.79058051109314
196019.601960196,-2.83373665809631
197019.701970197,-2.95080637931824
198019.801980198,-2.81157827377319
199019.901990199,-2.73282480239868
200020.0020002,-2.72225975990295
201020.102010201,-2.72392988204956
202020.202020202,-2.68144369125366
203020.302030203,-2.68407344818115
204020.402040204,-2.66462540626526
205020.502050205,-2.66053581237793
206020.602060206,-2.65164661407471
207020.702070207,-2.6350781917572
208020.802080208,-2.65114712715149
209020.902090209,-2.72289109230042
210021.00210021,-2.61033082008362
211021.102110211,-2.57264423370361
212021.202120212,-2.57623410224915
213021.302130213,-2.54814672470093
214021.402140214,-2.5440571308136
215021.502150215,-2.53228831291199
216021.602160216,-2.50804042816162
217021.702170217,-2.52026963233948
218021.802180218,-2.48354291915894
219021.902190219,-2.46889424324036
220022.00220022,-2.48208332061768
221022.102210221,-2.44247698783875
222022.202220222,-2.44510674476624
223022.302230223,-2.50533175468445
224022.402240224,-2.46476531028748
225022.502250225,-2.40020108222961
226022.602260226,-2.39515161514282
227022.702270227,-2.3718638420105
228022.802280228,-2.35529541969299
229022.902290229,-2.37232398986816
230023.00230023,-2.35191607475281
231023.102310231,-2.34110713005066
232023.202320232,-2.36293530464172
233023.302330233,-2.45867729187012
234023.402340234,-2.38451385498047
235023.502350235,-2.280592918396
236023.602360236,-2.25058555603027
237023.702370237,-2.2589750289917
238023.802380238,-2.22224831581116
239023.902390239,-2.21911883354187
240024.00240024,-2.21022963523865
241024.102410241,-2.19366121292114
242024.202420242,-2.20972990989685
243024.302430243,-2.15956449508667
244024.402440244,-2.14875555038452
245024.502450245,-2.17058372497559
246024.602460246,-2.20777058601379
247024.702470247,-2.11536884307861
248024.802480248,-2.09400081634521
249024.902490249,-2.10622978210449
250025.00250025,-2.0656635761261
251025.102510251,-2.06733345985413
252025.202520252,-2.04020595550537
253025.302530253,-2.03227686882019
254025.402540254,-2.01762819290161
255025.502550255,-1.98858094215393
256025.602560256,-1.99697029590607
257025.702570257,-1.97272253036499
258025.802580258,-1.97439253330231
259025.902590259,-2.02693819999695
260026.00260026,-2.04588675498962
261026.102610261,-1.93620622158051
262026.202620262,-1.89947962760925
263026.302630263,-1.90402936935425
264026.402640264,-1.88074147701263
265026.502650265,-1.87377226352692
266026.602660266,-1.90136003494263
267026.702670267,-1.84831476211548
268026.802680268,-1.84326529502869
269026.902690269,-1.83245635032654
270027.00270027,-1.80916845798492
271027.102710271,-1.82043766975403
272027.202720272,-1.88450229167938
273027.302730273,-1.78730082511902
274027.402740274,-1.76305305957794
275027.502750275,-1.7685626745224
276027.602760276,-1.71839714050293
277027.702770277,-1.72006714344025
278027.802780278,-1.70829832553864
279027.902790279,-1.69556963443756
280028.00280028,-1.71643793582916
281028.102810281,-1.67683148384094
282028.202820282,-1.67178201675415
283028.302830283,-1.64753425121307
284028.402840284,-1.64536464214325
285028.502850285,-1.69023084640503
286028.602860286,-1.74469637870789
287028.702870287,-1.63021636009216
288028.802880288,-1.59060990810394
289028.902890289,-1.59323978424072
290029.00290029,-1.5910701751709
291029.102910291,-1.55818319320679
292029.202920292,-1.56561267375946
293029.302930293,-1.53944504261017
294029.402940294,-1.53439557552338
295029.502950295,-1.53702557086945
296029.602960296,-1.51469755172729
297029.702970297,-1.52692663669586
298029.802980298,-1.59867060184479
299029.902990299,-1.50050926208496
300030.0030003,-1.47527730464935
301030.103010301,-1.48477649688721
302030.203020302,-1.44531989097595
303030.303030303,-1.44521987438202
304030.403040304,-1.43168103694916
305030.503050305,-1.4229416847229
306030.603060306,-1.4266813993454
307030.703070307,-1.39586400985718
308030.803080308,-1.40248346328735
309030.903090309,-1.36398684978485
310031.00310031,-1.36100709438324
311031.103110311,-1.40506327152252
312031.203120312,-1.52207314968109
313031.303130313,-1.44421982765198
314031.403140314,-1.3442884683609
315031.503150315,-1.31635081768036
316031.603160316,-1.32585000991821
317031.703170317,-1.31615090370178
318031.803180318,-1.3150908946991
319031.903190319,-1.29963231086731
320032.00320032,-1.29089295864105
321032.103210321,-1.31671071052551
322032.203220322,-1.26765501499176
323032.303230323,-1.26275539398193
324032.403240324,-1.3000922203064
325032.503250325,-1.28559339046478
326032.603260326,-1.24037730693817
327032.703270327,-1.24219715595245
328032.803280328,-1.22673845291138
329032.903290329,-1.21223974227905
330033.00330033,-1.2313380241394
331033.103310331,-1.20724010467529
332033.203320332,-1.21193969249725
333033.303330333,-1.19840085506439
334033.403340334,-1.19542109966278
335033.503350335,-1.2010805606842
336033.603360336,-1.18178224563599
337033.703370337,-1.19512104988098
338033.803380338,-1.27757394313812
339033.903390339,-1.29379260540009
340034.00340034,-1.18810164928436
341034.103410341,-1.15728437900543
342034.203420342,-1.16486370563507
343034.303430343,-1.17148303985596
344034.403440344,-1.15026485919952
345034.503450345,-1.14920496940613
346034.603460346,-1.13662600517273
347034.703470347,-1.15668427944183
348034.803480348,-1.13738596439362
349034.903490349,-1.14304542541504
350035.00350035,-1.13526618480682
351035.103510351,-1.13132643699646
352035.203520352,-1.15810418128967
353035.303530353,-1.14360535144806
354035.403540354,-1.15982401371002
355035.503550355,-1.24899625778198
356035.603560356,-1.16826319694519
357035.703570357,-1.13648593425751
358035.803580358,-1.14310538768768
359035.903590359,-1.13340616226196
360036.00360036,-1.13042640686035
361036.103610361,-1.17448258399963
362036.203620362,-1.14174544811249
363036.303630363,-1.14164543151855
364036.403640364,-1.14730489253998
365036.503650365,-1.13664591312408
366036.603660366,-1.15958392620087
367036.703670367,-1.14700496196747
368036.803680368,-1.15554416179657
369036.903690369,-1.226478099823
370037.00370037,-1.29069244861603
371037.103710371,-1.19844043254852
372037.203720372,-1.17914211750031
373037.303730373,-1.1924809217453
374037.403740374,-1.18662142753601
375037.503750375,-1.18844127655029
376037.603760376,-1.19122099876404
377037.703770377,-1.18248176574707
378037.803780378,-1.21117925643921
379037.903790379,-1.21587884426117
380038.00380038,-1.22633790969849
381038.103810381,-1.30303132534027
382038.203820382,-1.27989327907562
383038.303830383,-1.23755693435669
384038.403840384,-1.23841691017151
385038.503850385,-1.29495203495026
386038.603860386,-1.26701438426971
387038.703870387,-1.26787436008453
388038.803880388,-1.28505277633667
389038.903890389,-1.2811131477356
390039.00390039,-1.31844985485077
391039.103910391,-1.3308287858963
392039.203920392,-1.34512758255005
393039.303930393,-1.34502756595612
394039.403940394,-1.34780728816986
395039.503950395,-1.40818214416504
396039.603960396,-1.44935858249664
397039.703970397,-1.39742302894592
398039.803980398,-1.39828288555145
399039.903990399,-1.43082010746002
400040.0040004,-1.41824555397034
401040.104010401,-1.43937373161316
402040.204020402,-1.46146190166473
403040.304030403,-1.46819126605988
404040.404040404,-1.50947773456573
405040.504050405,-1.5037282705307
406040.604060406,-1.54021513462067
407040.704070407,-1.64869570732117
408040.804080408,-1.61702847480774
409040.904090409,-1.56904268264771
410041.00410041,-1.56905269622803
411041.104110411,-1.62089812755585
412041.204120412,-1.61226892471313
413041.304130413,-1.62859749794006
414041.404140414,-1.68044304847717
415041.504150415,-1.68813240528107
416041.604160416,-1.72845900058746
417041.704170417,-1.70447099208832
418041.804180418,-1.71504008769989
419041.904190419,-1.74000799655914
420042.00420042,-1.75633656978607
421042.104210421,-1.84561884403229
422042.204220422,-1.86194741725922
423042.304230423,-1.83507978916168
424042.404240424,-1.84564888477325
425042.504250425,-1.88405561447144
426042.604260426,-1.88406562805176
427042.704270427,-1.93399131298065
428042.804280428,-1.95991909503937
429042.904290429,-1.98872661590576
430043.00430043,-2.0232937335968
431043.104310431,-2.0146644115448
432043.204320432,-2.0434718132019
433043.304330433,-2.14523315429688
434043.404340434,-2.1241250038147
435043.504350435,-2.10781645774841
436043.604360436,-2.12318515777588
437043.704370437,-2.1423933506012
438043.804380438,-2.14912271499634
439043.904390439,-2.21728706359863
440044.00440044,-2.23073577880859
441044.104410441,-2.26530289649963
442044.204420442,-2.28547120094299
443044.304430443,-2.29987978935242
444044.404440444,-2.36420440673828
445044.504450445,-2.36517429351807
446044.604460446,-2.42085933685303
447044.704470447,-2.42086935043335
448044.804480448,-2.44679713249207
449044.904490449,-2.54567861557007
450045.00450045,-2.57928586006165
451045.104510451,-2.55625772476196
452045.204520452,-2.56682682037354
453045.304530453,-2.64363026618958
454045.404540454,-2.65035963058472
455045.504550455,-2.66284871101379
456045.604560456,-2.69453597068787
457045.704570457,-2.69646573066711
458045.804580458,-2.75023102760315
459045.904590459,-2.76751971244812
460046.00460046,-2.79632711410522
461046.104610461,-2.85489201545715
462046.204620462,-2.86546111106873
463046.304630463,-2.94226455688477
464046.404640464,-3.07474303245544
465046.504650465,-2.99699997901917
466046.604660466,-2.9854907989502
467046.704670467,-3.00949883460999
468046.804680468,-3.06710386276245
469046.904690469,-3.06999349594116
470047.00470047,-3.1304783821106
471047.104710471,-3.16216564178467
472047.204720472,-3.19193315505981
473047.304730473,-3.22554016113281
474047.404740474,-3.23610925674438
475047.504750475,-3.31195282936096
476047.604760476,-3.46170973777771
477047.704770477,-3.38780617713928
478047.804780478,-3.37533736228943
479047.904790479,-3.39646553993225
480048.00480048,-3.47806835174561
481048.104810481,-3.48287796974182
482048.204820482,-3.54816246032715
483048.304830483,-3.55585169792175
484048.404840484,-3.56354117393494
485048.504850485,-3.62498593330383
486048.604860486,-3.63843464851379
487048.704870487,-3.72099757194519
488048.804880488,-3.73444628715515
489048.904890489,-3.78629183769226
490049.00490049,-3.91205096244812
491049.104910491,-3.95333743095398
492049.204920492,-3.9111111164093
493049.304930493,-3.91208100318909
494049.404940494,-3.96968603134155
495049.504950495,-4.0061731338501
496049.604960496,-4.04074001312256
497049.704970497,-4.06570768356323
498049.804980498,-4.0762767791748
499049.904990499,-4.1511607170105
500050.0050005,-4.16749238967896
501050.105010501,-4.21940803527832
502050.205020502,-4.27324342727661
503050.305030503,-4.26084470748901
504050.405040504,-4.28204298019409
505050.505050505,-4.37523460388184
506050.605060506,-4.525062084198
507050.705070507,-4.45602798461914
508050.805080508,-4.45034837722778
509050.905090509,-4.48210573196411
510051.00510051,-4.57337760925293
511051.105110511,-4.58689641952515
512051.205120512,-4.63785219192505
513051.305130513,-4.63985204696655
514051.405140514,-4.70136690139771
515051.505150515,-4.78879928588867
516051.605160516,-4.82823610305786
517051.705170517,-4.94062614440918
518051.805180518,-4.97334337234497
519051.905190519,-4.90430927276611
520052.00520052,-4.89766979217529
521052.105210521,-4.92942714691162
522052.205220522,-5.00342082977295
523052.305230523,-5.0438175201416
524052.405240524,-5.06981515884399
525052.505250525,-5.08717393875122
526052.605260526,-5.17652606964111
527052.705270527,-5.18908500671387
528052.805280528,-5.2141227722168
529052.905290529,-5.31211423873901
530053.00530053,-5.48401975631714
531053.105310531,-5.40058660507202
532053.205320532,-5.38722801208496
533053.305330533,-5.40458631515503
534053.405340534,-5.48529958724976
535053.505350535,-5.4863395690918
536053.605360536,-5.54305458068848
537053.705370537,-5.55177402496338
