Trace
Swept SA
A.16.09,N9010A
544 B25 B40 EXM FS1 MPB P44 RTL ,01
Segment,0
Number of Points,10001
Sweep Time,0.001333333333
Start Frequency,0
Stop Frequency,10000000
Average Count,100
Average Type,LogPower(Video)
RBW,30000
RBW Filter,Gaussian
RBW Filter BW,3dB
VBW,300000
Sweep Type,Swept
X Axis Scale,Lin
PreAmp State,Off
PreAmp Band,Low
Trigger Source,Free
Trigger Level,1.2
Trigger Slope,Positive
Trigger Delay,0
Phase Noise Optimization,Narrow
Swept If Gain,Low
FFT If Gain,Autorange
RF Coupling,DC
FFT Width,411900
Ext Ref,10000000
Input,RF
RF Calibrator,Off
Attenuation,10
Ref Level Offset,0
External Gain,0
Trace Type,Maxhold
Detector,Peak
Trace Math,Off
Trace Math Oper1,Trace5
Trace Math Oper2,Trace6
Trace Math Offset,0
Normalize,Off
Trace Name,Trace1
X Axis Units,Hz
Y Axis Units,dBm
DATA
0,-12.9203977584839
1000,-13.0144691467285
2000,-13.1028966903687
3000,-13.2186050415039
4000,-13.359712600708
5000,-13.5281019210815
6000,-13.7218894958496
7000,-13.9429588317871
8000,-14.1894273757935
9000,-14.4631757736206
10000,-14.7685098648071
11000,-15.0079927444458
12000,-15.2408905029297
13000,-15.4963655471802
14000,-15.7744178771973
15000,-16.0731658935547
16000,-16.3954315185547
17000,-16.7402744293213
18000,-17.1067543029785
19000,-17.4958114624023
20000,-17.9055652618408
21000,-18.3096733093262
22000,-18.7213077545166
23000,-19.1517562866211
24000,-19.6000804901123
25000,-20.066276550293
26000,-20.5503444671631
27000,-21.0513477325439
28000,-21.4018363952637
29000,-21.7466793060303
30000,-22.0971660614014
31000,-22.4551811218262
32000,-22.8207187652588
33000,-23.1937847137451
34000,-23.5753154754639
35000,-23.9653129577637
36000,-24.226432800293
37000,-24.4423980712891
38000,-24.6489562988281
39000,-24.8470478057861
40000,-25.0413761138916
41000,-25.2310009002686
42000,-25.4215660095215
43000,-25.6168346405029
44000,-25.8158664703369
45000,-26.0252456665039
46000,-26.2280406951904
47000,-26.2351665496826
48000,-26.2140712738037
49000,-26.2061443328857
50000,-26.2104473114014
51000,-26.2223167419434
52000,-26.2548828125
53000,-26.276159286499
54000,-26.2720355987549
55000,-26.2556838989258
56000,-26.2412128448486
57000,-26.2427349090576
58000,-26.2658920288086
59000,-26.3153896331787
60000,-26.3460750579834
61000,-26.2949161529541
62000,-26.2682151794434
63000,-26.2443370819092
64000,-26.2373924255371
65000,-26.241735458374
66000,-26.2601909637451
67000,-26.265474319458
68000,-26.2942771911621
69000,-26.2854499816895
70000,-26.289794921875
71000,-26.2894344329834
72000,-26.2909545898438
73000,-26.3131732940674
74000,-26.3137531280518
75000,-26.3152751922607
76000,-26.3055076599121
77000,-26.29856300354
78000,-26.2925586700439
79000,-26.2950210571289
80000,-26.3106536865234
81000,-26.3018264770508
82000,-26.2939414978027
83000,-26.2992248535156
84000,-26.2856941223145
85000,-26.2843933105469
86000,-26.292501449585
87000,-26.3006076812744
88000,-26.2767295837402
89000,-26.2735462188721
90000,-26.2797718048096
91000,-26.2831745147705
92000,-26.2752895355225
93000,-26.2730484008789
94000,-26.2726879119873
95000,-26.2629203796387
96000,-26.2653827667236
97000,-26.2744293212891
98000,-26.2618408203125
99000,-26.2633628845215
100000,-26.2724094390869
101000,-26.2695274353027
102000,-26.2600612640381
103000,-26.2590618133545
104000,-26.2561798095703
105000,-26.2598838806152
106000,-26.2711124420166
107000,-26.260705947876
108000,-26.2587642669678
109000,-26.2690544128418
110000,-26.2652320861816
111000,-26.2623500823975
112000,-26.2566471099854
113000,-26.2518844604492
114000,-26.2480621337891
115000,-26.2480030059814
116000,-26.2375946044922
117000,-26.2328319549561
118000,-26.2318325042725
119000,-26.2411804199219
120000,-26.2270107269287
121000,-26.2231884002686
122000,-26.2344169616699
123000,-26.2221279144287
124000,-26.2117214202881
125000,-26.2135429382324
126000,-26.2219505310059
127000,-26.2181282043457
128000,-26.2180690765381
129000,-26.2292995452881
130000,-26.2264175415039
131000,-26.2131881713867
132000,-26.205602645874
133000,-26.2017803192139
134000,-26.2092475891113
135000,-26.2157726287842
136000,-26.2335872650146
137000,-26.2081279754639
138000,-26.1977214813232
139000,-26.1995429992676
140000,-26.2051296234131
141000,-26.1787300109863
142000,-26.1749076843262
143000,-26.1833152770996
144000,-26.1879596710205
145000,-26.1775512695313
146000,-26.1803150177002
147000,-26.186840057373
148000,-26.1670265197754
149000,-26.1660251617432
150000,-26.1669082641602
151000,-26.1593227386475
152000,-26.1630268096924
153000,-26.1601448059082
154000,-26.1610260009766
155000,-26.1562633514404
156000,-26.1562042236328
157000,-26.1542625427246
158000,-26.1400928497314
159000,-26.1400337219238
160000,-26.1512641906738
161000,-26.1389751434326
162000,-26.1370334625244
163000,-26.1379146575928
164000,-26.1510257720947
165000,-26.1387367248535
166000,-26.1236267089844
167000,-26.1235675811768
168000,-26.1282119750977
169000,-26.1234493255615
170000,-26.1309146881104
171000,-26.1261520385742
172000,-26.1101016998291
173000,-26.1043968200684
174000,-26.1099834442139
175000,-26.1136856079102
176000,-26.1042194366455
177000,-26.1003971099854
178000,-26.1106853485107
179000,-26.1031017303467
180000,-26.1021003723145
181000,-26.0992202758789
182000,-26.0850505828857
183000,-26.0859317779541
184000,-26.0896339416504
185000,-26.0782871246338
186000,-26.0763454437256
187000,-26.054651260376
188000,-26.0527095794678
189000,-26.0677013397217
190000,-26.0817527770996
191000,-26.0788726806641
192000,-26.0684642791748
193000,-26.0674648284912
194000,-26.0476512908936
195000,-26.0334796905518
196000,-26.0334205627441
197000,-26.0446510314941
198000,-26.050235748291
199000,-26.0191326141357
200000,-26.011547088623
201000,-26.0188426971436
202000,-26.0204925537109
203000,-26.0249652862549
204000,-26.0256767272949
205000,-26.0357933044434
206000,-26.0430889129639
207000,-26.0400352478027
208000,-26.0416870117188
209000,-26.0282859802246
210000,-26.029935836792
211000,-26.03346824646
212000,-26.035120010376
213000,-26.0339469909668
214000,-26.0243091583252
215000,-26.0212574005127
216000,-26.0266704559326
217000,-26.0217361450195
218000,-26.02903175354
219000,-26.023157119751
220000,-26.0163402557373
221000,-26.0217533111572
222000,-26.0111751556396
223000,-26.0081233978271
224000,-26.005069732666
225000,-26.0038986206055
226000,-25.9989643096924
227000,-26.0053176879883
228000,-26.0097904205322
229000,-26.0029754638672
230000,-26.0055675506592
231000,-26.0307350158691
232000,-26.0220394134521
233000,-26.018985748291
234000,-26.012170791626
235000,-25.9921836853027
236000,-25.9919528961182
237000,-26.0095958709717
238000,-26.0018405914307
239000,-25.994083404541
240000,-25.9891490936279
241000,-25.9879779815674
242000,-25.9915103912354
243000,-25.9912796020508
244000,-25.9985752105713
245000,-25.978588104248
246000,-25.9745941162109
247000,-25.9734230041504
248000,-25.9741325378418
249000,-25.9654369354248
250000,-25.9586200714111
251000,-25.9640350341797
252000,-25.9929656982422
253000,-25.9786243438721
254000,-25.971809387207
255000,-25.9781627655029
256000,-25.9694652557373
257000,-25.9711170196533
258000,-25.9614791870117
259000,-25.9640693664551
260000,-25.9694843292236
261000,-25.9833641052246
262000,-25.972785949707
263000,-25.9509181976318
264000,-25.9497470855713
265000,-25.9636268615723
266000,-25.9586925506592
267000,-25.9518756866455
268000,-25.9450607299805
269000,-25.9391860961914
270000,-25.9445991516113
271000,-25.9500122070313
272000,-25.9488410949707
273000,-25.9542541503906
274000,-25.9521427154541
275000,-25.946268081665
276000,-25.9441566467285
277000,-25.9476871490479
278000,-25.9502792358398
279000,-25.9500484466553
280000,-25.9394702911377
281000,-25.9382991790771
282000,-25.926778793335
283000,-25.929370880127
284000,-25.9253768920898
285000,-25.9251461029053
286000,-25.9427890777588
287000,-25.9190406799316
288000,-25.9122257232666
289000,-25.9176387786865
290000,-25.9183483123779
291000,-25.9190578460693
292000,-25.9188270568848
293000,-25.9195384979248
294000,-25.9023742675781
295000,-25.9012031555176
296000,-25.9141426086426
297000,-25.9092082977295
298000,-25.8976879119873
299000,-25.9002799987793
300000,-25.8944053649902
301000,-25.8971271514893
302000,-25.8838577270508
303000,-25.8846969604492
304000,-25.8940048217773
305000,-25.8957862854004
306000,-25.9182643890381
307000,-25.904052734375
308000,-25.8757305145264
309000,-25.8709278106689
310000,-25.8745899200439
311000,-25.8707275390625
312000,-25.8734493255615
313000,-25.8733501434326
314000,-25.8685455322266
315000,-25.8750305175781
316000,-25.8627014160156
317000,-25.8522548675537
318000,-25.8559169769287
319000,-25.8624019622803
320000,-25.8641834259033
321000,-25.8631420135498
322000,-25.8432884216309
323000,-25.8300170898438
324000,-25.8317985534668
325000,-25.8486328125
326000,-25.8334808349609
327000,-25.8305587768555
328000,-25.8426876068115
329000,-25.8369426727295
330000,-25.8396663665771
331000,-25.8329811096191
332000,-25.8262958526611
333000,-25.8252544403076
334000,-25.8392658233643
335000,-25.8212928771973
336000,-25.8146076202393
337000,-25.8192100524902
338000,-25.8172302246094
339000,-25.7983150482178
340000,-25.7982158660889
341000,-25.8150482177734
342000,-25.8045997619629
343000,-25.7988548278809
344000,-25.7959327697754
345000,-25.7977142333984
346000,-25.793851852417
347000,-25.7843456268311
348000,-25.7833042144775
349000,-25.781322479248
350000,-25.7793407440186
351000,-25.7783012390137
352000,-25.7772598266602
353000,-25.7809238433838
354000,-25.7827033996582
355000,-25.7797813415527
356000,-25.7768592834473
357000,-25.7654705047607
358000,-25.7672519683838
359000,-25.7765598297119
360000,-25.7623500823975
361000,-25.7566051483154
362000,-25.762149810791
363000,-25.7629909515381
364000,-25.760066986084
365000,-25.7712574005127
366000,-25.7466983795166
367000,-25.7447166442871
368000,-25.7389717102051
369000,-25.7407531738281
370000,-25.7378311157227
371000,-25.7358493804932
372000,-25.7338695526123
373000,-25.7262420654297
374000,-25.7252025604248
375000,-25.7401542663574
376000,-25.7259426116943
377000,-25.7211399078369
378000,-25.7276248931885
379000,-25.7190570831299
380000,-25.718017578125
381000,-25.709451675415
382000,-25.6990032196045
383000,-25.6998443603516
384000,-25.6978626251221
385000,-25.6940002441406
386000,-25.6901359558105
387000,-25.6919174194336
388000,-25.6936988830566
389000,-25.7039470672607
390000,-25.7038478851318
391000,-25.6999835968018
392000,-25.6980037689209
393000,-25.6734447479248
394000,-25.6714630126953
395000,-25.6741847991943
396000,-25.6731433868408
397000,-25.6880950927734
398000,-25.694580078125
399000,-25.668140411377
400000,-25.660514831543
401000,-25.6624069213867
402000,-25.6605358123779
403000,-25.6708927154541
404000,-25.6577320098877
405000,-25.6558609008789
406000,-25.6530494689941
407000,-25.6511783599854
408000,-25.6521282196045
409000,-25.6511974334717
410000,-25.6512088775635
411000,-25.6700325012207
412000,-25.6493473052979
413000,-25.6465339660645
414000,-25.6446628570557
415000,-25.6418514251709
416000,-25.6503276824951
417000,-25.6456336975098
418000,-25.6409397125244
419000,-25.6296615600586
420000,-25.6277904510498
421000,-25.6155700683594
422000,-25.6174621582031
423000,-25.6287612915039
424000,-25.6231269836426
425000,-25.6052627563477
426000,-25.6062145233154
427000,-25.613748550415
428000,-25.6137599945068
429000,-25.6184730529785
430000,-25.6278896331787
431000,-25.6015605926514
432000,-25.5996894836426
433000,-25.6062831878662
434000,-25.606294631958
435000,-25.6138286590576
436000,-25.5969066619873
437000,-25.5969161987305
438000,-25.5959854125977
439000,-25.5950546264648
440000,-25.5865993499756
441000,-25.5809650421143
442000,-25.5866184234619
443000,-25.6073246002197
444000,-25.5819358825684
445000,-25.576301574707
446000,-25.5800743103027
447000,-25.5772609710693
448000,-25.5847969055176
449000,-25.5866889953613
450000,-25.571647644043
451000,-25.5660133361816
452000,-25.5726089477539
453000,-25.565092086792
454000,-25.5669841766357
455000,-25.565113067627
456000,-25.5632400512695
457000,-25.5472583770752
458000,-25.5444469451904
459000,-25.5557460784912
460000,-25.5651626586914
461000,-25.5651721954346
462000,-25.5576572418213
463000,-25.5576667785645
464000,-25.5482692718506
465000,-25.5435752868652
466000,-25.5501708984375
467000,-25.5548839569092
468000,-25.5398426055908
469000,-25.5351486206055
470000,-25.5417442321777
471000,-25.5351696014404
472000,-25.5408229827881
473000,-25.5511817932129
474000,-25.5502510070801
475000,-25.5361499786377
476000,-25.5258121490479
477000,-25.5267639160156
478000,-25.5342998504639
479000,-25.525842666626
480000,-25.5258522033691
481000,-25.5192775726318
482000,-25.5211696624756
483000,-25.5117721557617
484000,-25.5089588165283
485000,-25.5155544281006
486000,-25.5146236419678
487000,-25.524040222168
488000,-25.5174655914307
489000,-25.5043067932129
490000,-25.505256652832
491000,-25.5080890655518
492000,-25.514684677124
493000,-25.5175151824951
494000,-25.5147037506104
495000,-25.5015430450439
496000,-25.5024948120117
497000,-25.5043869018555
498000,-25.5109806060791
499000,-25.5015830993652
500000,-25.503475189209
501000,-25.5101413726807
502000,-25.5073986053467
503000,-25.4914855957031
504000,-25.4849815368652
505000,-25.4907054901123
506000,-25.5020732879639
507000,-25.4993324279785
508000,-25.4994125366211
509000,-25.4900856018066
510000,-25.4873428344727
511000,-25.4911861419678
512000,-25.4856204986572
513000,-25.4734725952148
514000,-25.4744930267334
515000,-25.496208190918
516000,-25.5028743743896
517000,-25.4869613647461
518000,-25.4832782745361
519000,-25.4814777374268
520000,-25.4890842437744
521000,-25.489164352417
522000,-25.47607421875
523000,-25.475212097168
524000,-25.4771747589111
525000,-25.4678478240967
526000,-25.4707489013672
527000,-25.4670658111572
528000,-25.4690284729004
529000,-25.4709892272949
530000,-25.4588394165039
531000,-25.4589195251465
532000,-25.4749927520752
533000,-25.4807167053223
534000,-25.4685668945313
535000,-25.4677066802979
536000,-25.4687271118164
537000,-25.468807220459
538000,-25.4848785400391
539000,-25.4774341583252
540000,-25.4596405029297
541000,-25.4568977355957
542000,-25.4569778442383
543000,-25.4758720397949
544000,-25.470308303833
545000,-25.468505859375
546000,-25.4488315582275
547000,-25.4460887908936
548000,-25.4461688995361
549000,-25.4612998962402
550000,-25.4632625579834
551000,-25.4558162689209
552000,-25.459659576416
553000,-25.4738502502441
554000,-25.4664039611816
555000,-25.4646034240723
556000,-25.4590377807617
557000,-25.4638214111328
558000,-25.4591979980469
559000,-25.4649238586426
560000,-25.4697074890137
561000,-25.4641418457031
562000,-25.4670448303223
563000,-25.4652423858643
564000,-25.4615592956543
565000,-25.4606990814209
566000,-25.4588985443115
567000,-25.453332901001
568000,-25.4590587615967
569000,-25.4676036834717
570000,-25.4676837921143
571000,-25.4621200561523
572000,-25.4678440093994
573000,-25.4651031494141
574000,-25.452953338623
575000,-25.4520931243896
576000,-25.4578170776367
577000,-25.4578971862793
578000,-25.4645614624023
579000,-25.4749889373779
580000,-25.4675445556641
581000,-25.4582176208496
582000,-25.4592380523682
583000,-25.4517917633057
584000,-25.4565753936768
585000,-25.4604187011719
586000,-25.4699058532715
587000,-25.4699859619141
588000,-25.458776473999
589000,-25.4588565826416
590000,-25.4674034118652
591000,-25.4684238433838
592000,-25.4675636291504
593000,-25.4714069366455
594000,-25.4940643310547
595000,-25.4837951660156
596000,-25.4707050323486
597000,-25.4698448181152
598000,-25.4746284484863
599000,-25.4756488800049
600000,-25.4653816223145
601000,-25.4692249298096
602000,-25.4721260070801
603000,-25.4750289916992
604000,-25.4713459014893
605000,-25.4638996124268
606000,-25.4686832427979
607000,-25.4753494262695
608000,-25.4735469818115
609000,-25.4679832458496
610000,-25.4661808013916
611000,-25.4719066619873
612000,-25.4795112609863
613000,-25.4805316925049
614000,-25.4787311553955
615000,-25.4788112640381
616000,-25.4930019378662
617000,-25.4733257293701
618000,-25.4724655151367
619000,-25.4866561889648
620000,-25.4952030181885
621000,-25.4981060028076
622000,-25.4963035583496
623000,-25.4926204681396
624000,-25.4879970550537
625000,-25.4880771636963
626000,-25.4928607940674
627000,-25.4976444244385
628000,-25.5052509307861
629000,-25.5090942382813
630000,-25.5138778686523
631000,-25.5045490264893
632000,-25.4961624145508
633000,-25.4934215545654
634000,-25.4982051849365
635000,-25.4982852935791
636000,-25.5181198120117
637000,-25.5134963989258
638000,-25.5088729858398
639000,-25.5070705413818
640000,-25.5146770477295
641000,-25.516637802124
642000,-25.5336513519287
643000,-25.5299682617188
644000,-25.5262851715088
645000,-25.5019073486328
646000,-25.4982242584229
647000,-25.5086517333984
648000,-25.5275459289551
649000,-25.5313892364502
650000,-25.5389957427979
651000,-25.5428371429443
652000,-25.5429172515869
653000,-25.5401763916016
654000,-25.5421371459961
655000,-25.5403366088867
656000,-25.5498237609863
657000,-25.5376739501953
658000,-25.5349311828613
659000,-25.543478012085
660000,-25.5595512390137
661000,-25.5464611053467
662000,-25.5437183380127
663000,-25.5550861358643
664000,-25.571159362793
665000,-25.566535949707
666000,-25.5741405487061
667000,-25.5619926452637
668000,-25.5639533996582
669000,-25.5706176757813
670000,-25.595157623291
671000,-25.5801849365234
672000,-25.5765018463135
673000,-25.5859889984131
674000,-25.5917148590088
675000,-25.6012020111084
676000,-25.5993995666504
677000,-25.5919551849365
678000,-25.5976791381836
679000,-25.6043434143066
680000,-25.6016006469727
681000,-25.6110877990723
682000,-25.6064643859863
683000,-25.603723526001
684000,-25.6150913238525
685000,-25.6170520782471
686000,-25.6077251434326
687000,-25.6106281280518
688000,-25.6370487213135
689000,-25.6333656311035
690000,-25.6315631866455
691000,-25.6448135375977
692000,-25.6420726776123
693000,-25.6487369537354
694000,-25.6422309875488
695000,-25.6394901275635
696000,-25.6442737579346
697000,-25.6612854003906
698000,-25.6735954284668
699000,-25.6764984130859
700000,-25.6746959686279
701000,-25.6644287109375
702000,-25.6522789001465
703000,-25.6551818847656
704000,-25.6797199249268
705000,-25.7033176422119
706000,-25.6939907073975
707000,-25.685604095459
708000,-25.6885070800781
709000,-25.6951713562012
710000,-25.7121849060059
711000,-25.734842300415
712000,-25.7076416015625
713000,-25.7039585113525
714000,-25.7134456634521
715000,-25.7257537841797
716000,-25.7201900482178
717000,-25.7230930328369
718000,-25.737283706665
719000,-25.7477111816406
720000,-25.7393245697021
721000,-25.7441082000732
722000,-25.7479515075684
723000,-25.7367420196533
724000,-25.7405853271484
725000,-25.7670059204102
726000,-25.7642631530762
727000,-25.7521133422852
728000,-25.7550163269043
729000,-25.7748508453369
730000,-25.7721099853516
731000,-25.7815971374512
732000,-25.7986087799072
733000,-25.8080959320068
734000,-25.7912445068359
735000,-25.7913246154785
736000,-25.8055152893066
737000,-25.8112392425537
738000,-25.8329544067383
739000,-25.8443241119385
740000,-25.8425216674805
741000,-25.8369579315186
742000,-25.8342151641846
743000,-25.8455848693848
