Trace
Swept SA
A.16.09,N9010A
544 B25 B40 EXM FS1 MPB P44 RTL ,01
Segment,0
Number of Points,10001
Sweep Time,0.071333333333
Start Frequency,0
Stop Frequency,100000
Average Count,100
Average Type,LogPower(Video)
RBW,300
RBW Filter,Gaussian
RBW Filter BW,3dB
VBW,3000
Sweep Type,Swept
X Axis Scale,Lin
PreAmp State,Off
PreAmp Band,Low
Trigger Source,Free
Trigger Level,1.2
Trigger Slope,Positive
Trigger Delay,0
Phase Noise Optimization,Narrow
Swept If Gain,Low
FFT If Gain,Autorange
RF Coupling,DC
FFT Width,411900
Ext Ref,10000000
Input,RF
RF Calibrator,Off
Attenuation,10
Ref Level Offset,0
External Gain,0
Trace Type,Maxhold
Detector,Peak
Trace Math,Off
Trace Math Oper1,Trace5
Trace Math Oper2,Trace6
Trace Math Offset,0
Normalize,Off
Trace Name,Trace1
X Axis Units,Hz
Y Axis Units,dBm
DATA
0,-14.71169090271
10,-14.7228240966797
20,-14.758448600769
30,-14.8219051361084
40,-14.9098539352417
50,-15.0267486572266
60,-15.1670207977295
70,-15.3373527526855
80,-15.531063079834
90,-15.7559442520142
100,-16.0030918121338
110,-16.2825241088867
120,-16.5842227935791
130,-16.919319152832
140,-17.2755680084229
150,-17.6663265228271
160,-18.078239440918
170,-18.5257759094238
180,-18.9944667816162
190,-19.4987812042236
200,-20.0264739990234
210,-20.5897922515869
220,-21.1764888763428
230,-21.8021488189697
240,-22.4500770568848
250,-23.1391944885254
260,-23.848352432251
270,-24.6009273529053
280,-25.3746547698975
290,-26.1917991638184
300,-27.0312099456787
310,-27.9173774719238
320,-28.8280391693115
330,-29.7865695953369
340,-30.7673664093018
350,-31.8004875183105
360,-32.8558731079102
370,-33.9646949768066
380,-35.0957870483398
390,-36.2847633361816
400,-37.4948959350586
410,-38.764030456543
420,-40.0532073974609
430,-41.4036102294922
440,-42.7718276977539
450,-44.2012748718262
460,-45.6429672241211
470,-47.1392135620117
480,-48.6477012634277
490,-50.2051773071289
500,-51.7448387145996
510,-53.3101043701172
520,-54.8553314208984
530,-56.4050140380859
540,-57.8622932434082
550,-59.265022277832
560,-60.5708961486816
570,-61.7899322509766
580,-62.8286209106445
590,-63.7170143127441
600,-64.4283981323242
610,-64.9983978271484
620,-65.4303436279297
630,-65.7376098632813
640,-65.9079437255859
650,-66.0014572143555
660,-66.0504455566406
670,-66.0259475708008
680,-65.9803085327148
690,-65.9346618652344
700,-65.8901290893555
710,-65.8455963134766
720,-65.8110885620117
730,-65.7854843139648
740,-65.7710113525391
750,-65.7665557861328
760,-65.7665557861328
770,-65.7743530273438
780,-65.7921600341797
790,-65.8222198486328
800,-65.863410949707
810,-65.8055191040039
820,-65.668586730957
830,-65.5305404663086
840,-65.398063659668
850,-65.2666931152344
860,-65.1420059204102
870,-65.0206604003906
880,-64.9048767089844
890,-64.7935562133789
900,-64.6900177001953
910,-64.5898208618164
920,-64.4974212646484
930,-64.4116973876953
940,-64.3337707519531
950,-64.2413711547852
960,-64.1022109985352
970,-63.9675025939941
980,-63.8394737243652
990,-63.7159004211426
1000,-63.6001205444336
1010,-63.4899063110352
1020,-63.3874855041504
1030,-63.2895164489746
1040,-63.2015686035156
1050,-63.1180725097656
1060,-63.0434799194336
1070,-62.9744567871094
1080,-62.9132270812988
1090,-62.8575630187988
1100,-62.8108062744141
1110,-62.7707290649414
1120,-62.7395553588867
1130,-62.716178894043
1140,-62.7005920410156
1150,-62.6916847229004
1160,-62.6905746459961
1170,-62.6905746459961
1180,-62.6972541809082
1190,-62.7106132507324
1200,-62.7306518554688
1210,-62.7607078552246
1220,-62.7963333129883
1230,-62.8408660888672
1240,-62.8909645080566
1250,-62.9499664306641
1260,-63.0134239196777
1270,-63.0857849121094
1280,-63.1626014709473
1290,-63.2472114562988
1300,-63.3373870849609
1310,-63.4353561401367
1320,-63.5355491638184
1330,-63.6435394287109
1340,-63.7537536621094
1350,-63.8706474304199
1360,-63.9908790588379
1370,-64.117790222168
1380,-64.2469329833984
1390,-64.3816375732422
1400,-64.5163497924805
1410,-64.6566162109375
1420,-64.7779693603516
1430,-64.7122802734375
1440,-64.6632995605469
1450,-64.6310119628906
1460,-64.6143188476563
1470,-64.5942764282227
1480,-64.4729309082031
1490,-64.3426742553711
1500,-64.2135391235352
1510,-64.0788269042969
1520,-63.9452362060547
1530,-63.8071899414063
1540,-63.6735954284668
1550,-63.538890838623
1560,-63.4075241088867
1570,-63.2761573791504
1580,-63.1514701843262
1590,-63.0290107727051
1600,-62.9132270812988
1610,-62.799674987793
1620,-62.6939125061035
1630,-62.5926055908203
1640,-62.4990882873535
1650,-62.410026550293
1660,-62.3298721313477
1670,-62.2552833557129
1680,-62.1884841918945
1690,-62.127254486084
1700,-62.0749320983887
1710,-62.0281753540039
1720,-61.9903221130371
1730,-61.9580383300781
1740,-61.9335441589355
1750,-61.9168472290039
1760,-61.9068260192871
1770,-61.904598236084
1780,-61.904598236084
1790,-61.9090538024902
1800,-61.9201850891113
1810,-61.9391098022461
1820,-61.9636039733887
1830,-61.9958877563477
1840,-62.0337409973145
1850,-62.0782699584961
1860,-62.1294822692871
1870,-62.187370300293
1880,-62.2508277893066
1890,-62.322078704834
1900,-62.3988952636719
1910,-62.4823913574219
1920,-62.5714530944824
1930,-62.6683082580566
1940,-62.7696151733398
1950,-62.8787155151367
1960,-62.9922714233398
1970,-63.1136169433594
1980,-63.2383041381836
1990,-63.3707847595215
2000,-63.4097480773926
2010,-63.4164276123047
2020,-63.4253349304199
2030,-63.4375801086426
2040,-63.4509391784668
2050,-63.4676399230957
2060,-63.4854507446289
2070,-63.5043792724609
2080,-63.5244178771973
2090,-63.5455703735352
2100,-63.5656089782715
2110,-63.5845336914063
2120,-63.6012344360352
2130,-63.6179313659668
2140,-63.631290435791
2150,-63.6424255371094
2160,-63.650218963623
2170,-63.6568984985352
2180,-63.659122467041
2190,-63.654670715332
2200,-63.6479911804199
2210,-63.6379699707031
2220,-63.6257247924805
2230,-63.6090278625488
2240,-63.5912132263184
2250,-63.5700607299805
2260,-63.5489082336426
2270,-63.5244178771973
2280,-63.4999237060547
2290,-63.4754333496094
2300,-63.4509391784668
2310,-63.427562713623
2320,-63.4052963256836
2330,-63.3841438293457
2340,-63.3652191162109
2350,-63.348518371582
2360,-63.3340454101563
2370,-63.3229141235352
2380,-63.316234588623
2390,-63.3117828369141
2400,-63.3117828369141
2410,-63.3117828369141
2420,-63.316234588623
2430,-63.3229141235352
2440,-63.3340454101563
2450,-63.3474044799805
2460,-63.3618774414063
2470,-63.3796920776367
2480,-63.3986167907715
2490,-63.4186553955078
2500,-63.4386940002441
2510,-63.4609603881836
2520,-63.4809989929199
2530,-63.4999237060547
2540,-63.5166244506836
2550,-63.5310974121094
2560,-63.5411148071289
2570,-63.4342422485352
2580,-63.3195762634277
2590,-63.209358215332
2600,-63.1058235168457
2610,-63.0056304931641
2620,-62.9121170043945
2630,-62.8208274841309
2640,-62.7362174987793
2650,-62.6538352966309
2660,-62.577018737793
2670,-62.5024299621582
2680,-62.4322929382324
2690,-62.3654975891113
2700,-62.3031539916992
2710,-62.243034362793
2720,-62.187370300293
2730,-62.1328201293945
2740,-62.0838356018066
2750,-62.0359649658203
2760,-61.9925498962402
2770,-61.951358795166
2780,-61.9146194458008
2790,-61.8789939880371
2800,-61.8478240966797
2810,-60.8102493286133
2820,-59.4531631469727
2830,-58.0715866088867
2840,-56.7189559936523
2850,-55.3418350219727
2860,-54.0092430114746
2870,-52.6766510009766
2880,-51.3941535949707
2890,-50.1127738952637
2900,-48.8870582580566
2910,-47.6713600158691
2920,-46.5102119445801
2930,-45.3613090515137
2940,-44.2680702209473
2950,-43.1893081665039
2960,-42.1662063598633
2970,-41.1575775146484
2980,-40.2012710571289
2990,-39.2616653442383
3000,-38.3743858337402
3010,-37.5026893615723
3020,-36.6788635253906
3030,-35.8728523254395
3040,-35.113597869873
3050,-34.3721542358398
3060,-33.6741333007813
3070,-32.9950332641602
3080,-32.3582382202148
3090,-31.7403697967529
3100,-31.1625785827637
3110,-30.6048278808594
3120,-30.0860404968262
3130,-29.5861797332764
3140,-29.1241703033447
3150,-28.683313369751
3160,-28.2769660949707
3170,-27.8906593322754
3180,-27.5388641357422
3190,-27.2082214355469
3200,-26.9098625183105
3210,-26.6337699890137
3220,-26.3888492584229
3230,-26.1673069000244
3240,-25.976936340332
3250,-25.8088321685791
3260,-25.6707859039307
3270,-25.5572319030762
3280,-25.4703960418701
3290,-25.4102802276611
3300,-25.375768661499
3310,-25.3679752349854
3320,-25.3679752349854
3330,-25.3868999481201
3340,-25.4314308166504
3350,-25.5026817321777
3360,-25.599536895752
3370,-25.7242240905762
3380,-25.8734016418457
3390,-26.0526390075684
3400,-26.2541427612305
3410,-26.4868183135986
3420,-26.7417583465576
3430,-26.9410343170166
3440,-26.6649417877197
3450,-26.4111156463623
3460,-26.1884593963623
3470,-25.9891834259033
3480,-25.8199653625488
3490,-25.6741256713867
3500,-25.5572319030762
3510,-25.4648303985596
3520,-25.4002590179443
3530,-25.3624076843262
3540,-25.3501625061035
3550,-25.3512763977051
3560,-25.3657474517822
3570,-25.408052444458
3580,-25.4748497009277
3590,-25.5705909729004
3600,-25.690824508667
3610,-25.8388900756836
3620,-26.0103359222412
3630,-26.2118377685547
3640,-26.4367198944092
3650,-26.6927738189697
3660,-26.7551174163818
3670,-26.4923839569092
3680,-26.2619361877441
3690,-26.0526390075684
3700,-25.8745155334473
3710,-25.7197704315186
3720,-25.5939693450928
3730,-25.491548538208
3740,-25.4169597625732
3750,-25.3679752349854
3760,-25.3457088470459
3770,-25.3434829711914
3780,-25.349048614502
3790,-25.380220413208
3800,-25.435884475708
3810,-25.519380569458
3820,-25.6284809112549
3830,-25.7654151916504
3840,-25.9268398284912
3850,-26.1172103881836
3860,-26.3309593200684
3870,-26.5758800506592
3880,-26.8430671691895
3890,-26.6482429504395
3900,-26.3977565765381
3910,-26.1706466674805
3920,-25.9747104644775
3930,-25.8010387420654
3940,-25.6574268341064
3950,-25.5371932983398
3960,-25.4459037780762
3970,-25.380220413208
3980,-25.3412570953369
3990,-25.3278961181641
4000,-25.3278961181641
4010,-25.3423690795898
4020,-25.3813343048096
4030,-25.4492435455322
4040,-25.5405330657959
4050,-25.6607666015625
4060,-25.8043785095215
4070,-25.9780502319336
4080,-26.1751003265381
4090,-26.4022083282471
4100,-26.6526966094971
4110,-26.9343547821045
4120,-26.6894340515137
4130,-26.4311542510986
4140,-26.2040462493896
4150,-26.000316619873
4160,-25.8255310058594
4170,-25.6752395629883
4180,-25.5538921356201
4190,-25.4559230804443
4200,-25.3868999481201
4210,-25.3434829711914
4220,-25.3267841339111
4230,-25.3267841339111
4240,-25.3368034362793
4250,-25.3735408782959
4260,-25.4347705841064
4270,-25.5249462127686
4280,-25.638500213623
4290,-25.7821140289307
4300,-25.9479923248291
4310,-26.1450424194336
4320,-26.3643569946289
4330,-26.6148452758789
4340,-26.7128124237061
4350,-26.4500789642334
4360,-26.2174053192139
4370,-26.0069961547852
4380,-25.8266448974609
4390,-25.6685600280762
4400,-25.5405330657959
4410,-25.435884475708
4420,-25.3601818084717
4430,-25.3089714050293
4440,-25.2844791412354
4450,-25.2822532653809
4460,-25.2867050170898
4470,-25.3156509399414
4480,-25.3702011108398
4490,-25.4514713287354
4500,-25.5583457946777
4510,-25.6930522918701
4520,-25.8511371612549
4530,-26.0392799377441
4540,-26.2508029937744
4550,-26.4923839569092
4560,-26.7562313079834
4570,-26.6504688262939
4580,-26.3966426849365
4590,-26.1650810241699
4600,-25.9635772705078
4610,-25.7854537963867
4620,-25.6373882293701
4630,-25.5127010345459
4640,-25.4169597625732
4650,-25.3468227386475
4660,-25.3034038543701
4670,-25.2855930328369
4680,-25.2855930328369
4690,-25.2956123352051
4700,-25.3301239013672
4710,-25.3935794830322
4720,-25.4804153442383
4730,-25.5961971282959
4740,-25.7364692687988
4750,-25.9056873321533
4760,-26.0982837677002
4770,-26.3220520019531
4780,-26.5669746398926
4790,-26.8452930450439
4800,-26.6270904541016
4810,-26.371036529541
4820,-26.1472682952881
4830,-25.944652557373
4840,-25.7732067108154
4850,-25.6251411437988
4860,-25.5049076080322
4870,-25.4102802276611
4880,-25.3434829711914
4890,-25.3011779785156
4900,-25.2867050170898
4910,-25.2867050170898
4920,-25.2978382110596
4930,-25.3356895446777
4940,-25.3991470336914
4950,-25.4893226623535
4960,-25.6051025390625
4970,-25.7487144470215
4980,-25.917932510376
4990,-26.116096496582
5000,-26.338752746582
5010,-26.5914649963379
5020,-26.8252544403076
5030,-26.5491619110107
5040,-26.3053531646729
5050,-26.0826988220215
5060,-25.8912143707275
5070,-25.7231101989746
5080,-25.5839500427246
5090,-25.4681701660156
5100,-25.3813343048096
5110,-25.3189907073975
5120,-25.2833652496338
5130,-25.2733459472656
5140,-25.2733459472656
5150,-25.2911586761475
5160,-25.3334636688232
5170,-25.4035987854004
5180,-25.4982280731201
5190,-25.6206893920898
5200,-25.7676410675049
5210,-25.9424247741699
5220,-26.140588760376
5230,-26.3699245452881
5240,-26.621524810791
5250,-26.6059379577637
5260,-26.3543376922607
5270,-26.1261157989502
5280,-25.9290657043457
5290,-25.7553958892822
5300,-25.6117820739746
5310,-25.491548538208
5320,-25.4002590179443
5330,-25.3345756530762
5340,-25.2956123352051
5350,-25.2822532653809
5360,-25.2822532653809
5370,-25.2956123352051
5380,-25.3345756530762
5390,-25.4024868011475
5400,-25.4937744140625
5410,-25.6151218414307
5420,-25.7598476409912
5430,-25.9346332550049
5440,-26.1327953338623
5450,-26.3610172271729
5460,-26.6126174926758
5470,-26.8742389678955
5480,-26.5970325469971
5490,-26.3420925140381
5500,-26.1194362640381
5510,-25.9190464019775
5520,-25.7487163543701
5530,-25.602876663208
5540,-25.4848690032959
5550,-25.3913536071777
5560,-25.3256702423096
5570,-25.2867050170898
5580,-25.2733459472656
5590,-25.2733459472656
5600,-25.2867050170898
5610,-25.3267841339111
5620,-25.3924674987793
5630,-25.4859828948975
5640,-25.602876663208
5650,-25.7509422302246
5660,-25.9212741851807
5670,-26.1227760314941
5680,-26.3465442657471
5690,-26.6025981903076
5700,-26.7673625946045
5710,-26.4979515075684
5720,-26.2608222961426
5730,-26.0470733642578
5740,-25.8622703552246
5750,-25.7019577026367
5760,-25.5694770812988
5770,-25.4614906311035
5780,-25.3813343048096
5790,-25.3256702423096
5800,-25.2978382110596
5810,-25.293384552002
5820,-25.2956123352051
5830,-25.320104598999
5840,-25.3690872192383
5850,-25.4470176696777
5860,-25.5483264923096
5870,-25.6785793304443
5880,-25.8322105407715
5890,-26.0159015655518
5900,-26.2218570709229
5910,-26.4600982666016
5920,-26.7206058502197
5930,-26.5157623291016
5940,-26.2719554901123
5950,-26.0515270233154
5960,-25.861156463623
5970,-25.6952781677246
5980,-25.5572319030762
5990,-25.4447917938232
6000,-25.3601818084717
6010,-25.3011779785156
6020,-25.268892288208
6030,-25.261100769043
6040,-25.2622127532959
6050,-25.2833652496338
6060,-25.3301239013672
6070,-25.4035987854004
6080,-25.5015678405762
6090,-25.6284809112549
6100,-25.7798862457275
6110,-25.9613513946533
6120,-26.1650810241699
6130,-26.3999824523926
6140,-26.6582622528076
6150,-26.8363857269287
6160,-26.5602931976318
6170,-26.307580947876
6180,-26.0860385894775
6190,-25.8867626190186
6200,-25.718656539917
6210,-25.5739307403564
6220,-25.4581508636475
6230,-25.3668613433838
6240,-25.3034038543701
6250,-25.265552520752
6260,-25.2544212341309
6270,-25.2555332183838
6280,-25.2700061798096
6290,-25.3123111724854
6300,-25.380220413208
6310,-25.4748497009277
6320,-25.5950832366943
6330,-25.7442626953125
6340,-25.916820526123
6350,-26.1205501556396
6360,-26.3465442657471
6370,-26.6048259735107
6380,-26.7662506103516
6390,-26.4968376159668
6400,-26.2608222961426
6410,-26.0459594726563
6420,-25.8633823394775
6430,-25.7030715942383
6440,-25.5728168487549
6450,-25.4681701660156
6460,-25.3902397155762
6470,-25.3379154205322
6480,-25.3123111724854
6490,-25.3100852966309
6500,-25.3134250640869
6510,-25.3423690795898
6520,-25.3958072662354
6530,-25.4770755767822
6540,-25.5049076080322
6550,-25.4002590179443
6560,-25.3234443664551
6570,-25.2711200714111
6580,-25.2466278076172
6590,-25.2444019317627
6600,-25.2488536834717
6610,-25.2777996063232
6620,-25.3323497772217
6630,-25.4136199951172
6640,-25.5204944610596
6650,-25.6563129425049
6660,-25.5928573608398
6670,-25.4737358093262
6680,-25.3824481964111
6690,-25.316764831543
6700,-25.2789134979248
6710,-25.2666664123535
6720,-25.2666664123535
6730,-25.2811393737793
6740,-25.321216583252
6750,-25.3880138397217
6760,-25.4804153442383
6770,-25.516040802002
6780,-25.4091663360596
6790,-25.3278961181641
6800,-25.2733459472656
6810,-25.2444019317627
6820,-25.2399482727051
6830,-25.2421741485596
6840,-25.265552520752
6850,-25.316764831543
6860,-25.3924674987793
6870,-25.4971141815186
6880,-25.6251411437988
6890,-25.5460987091064
6900,-25.4336585998535
6910,-25.3457088470459
6920,-25.2855930328369
6930,-25.2510814666748
6940,-25.2421741485596
6950,-25.2432880401611
6960,-25.2622127532959
6970,-25.3078575134277
6980,-25.3791084289551
6990,-25.4793033599854
7000,-25.4692821502686
7010,-25.3824481964111
7020,-25.3234443664551
7030,-25.2900447845459
7040,-25.2822532653809
7050,-25.2833652496338
7060,-25.3022918701172
7070,-25.349048614502
7080,-25.4191856384277
7090,-25.5182666778564
7100,-25.6418399810791
7110,-25.7687549591064
7120,-25.6251411437988
7130,-25.5071334838867
7140,-25.4169597625732
7150,-25.3512763977051
7160,-25.3145370483398
7170,-25.3034038543701
7180,-25.3034038543701
7190,-25.320104598999
7200,-25.3624076843262
7210,-25.432544708252
7220,-25.5260601043701
7230,-25.4425640106201
7240,-25.3535022735596
7250,-25.288932800293
7260,-25.2521934509277
7270,-25.2410621643066
7280,-25.2410621643066
7290,-25.2577610015869
7300,-25.2989521026611
7310,-25.3679752349854
7320,-25.4626026153564
7330,-25.5839500427246
7340,-25.610668182373
7350,-25.4859828948975
7360,-25.3902397155762
7370,-25.3189907073975
7380,-25.2744598388672
7390,-25.2566471099854
7400,-25.2566471099854
7410,-25.265552520752
7420,-25.2989521026611
7430,-25.3612957000732
7440,-25.4470176696777
7450,-25.5227203369141
7460,-25.4158458709717
7470,-25.3334636688232
7480,-25.2789134979248
7490,-25.2499675750732
7500,-25.2455139160156
7510,-25.2477416992188
7520,-25.2722339630127
7530,-25.324556350708
7540,-25.4013729095459
7550,-25.5060214996338
7560,-25.635160446167
7570,-25.5460987091064
7580,-25.4347705841064
7590,-25.347936630249
7600,-25.288932800293
7610,-25.2566471099854
7620,-25.2499675750732
7630,-25.2510814666748
7640,-25.2722339630127
7650,-25.320104598999
7660,-25.3935794830322
7670,-25.4948883056641
7680,-25.4737358093262
7690,-25.3735408782959
7700,-25.3011779785156
7710,-25.2544212341309
7720,-25.2343807220459
7730,-25.233268737793
7740,-25.2410621643066
7750,-25.2733459472656
7760,-25.3312358856201
7770,-25.4169597625732
7780,-25.5260601043701
7790,-25.6507472991943
7800,-25.516040802002
7810,-25.4058265686035
7820,-25.3234443664551
7830,-25.2666664123535
7840,-25.2377223968506
7850,-25.2321548461914
7860,-25.2343807220459
7870,-25.2566471099854
7880,-25.3056316375732
7890,-25.380220413208
7900,-25.4804153442383
7910,-25.3902397155762
7920,-25.3134250640869
7930,-25.2622127532959
7940,-25.2377223968506
7950,-25.2354946136475
7960,-25.2399482727051
7970,-25.268892288208
7980,-25.3223304748535
7990,-25.404712677002
8000,-25.5104751586914
8010,-25.6462936401367
8020,-25.5850639343262
8030,-25.4626026153564
8040,-25.3679752349854
8050,-25.2989521026611
