Trace
Swept SA
A.16.09,N9010A
544 B25 B40 EXM FS1 MPB P44 RTL ,01
Segment,0
Number of Points,10001
Sweep Time,0.020666666667
Start Frequency,0
Stop Frequency,1000000
Average Count,100
Average Type,LogPower(Video)
RBW,1000
RBW Filter,Gaussian
RBW Filter BW,3dB
VBW,10000
Sweep Type,Swept
X Axis Scale,Lin
PreAmp State,Off
PreAmp Band,Low
Trigger Source,Free
Trigger Level,1.2
Trigger Slope,Positive
Trigger Delay,0
Phase Noise Optimization,Narrow
Swept If Gain,Low
FFT If Gain,Autorange
RF Coupling,DC
FFT Width,411900
Ext Ref,10000000
Input,RF
RF Calibrator,Off
Attenuation,10
Ref Level Offset,0
External Gain,0
Trace Type,Maxhold
Detector,Peak
Trace Math,Off
Trace Math Oper1,Trace5
Trace Math Oper2,Trace6
Trace Math Offset,0
Normalize,Off
Trace Name,Trace1
X Axis Units,Hz
Y Axis Units,dBm
DATA
0,-14.5013732910156
100,-14.5591716766357
200,-14.5691900253296
300,-14.7387294769287
400,-15.0970754623413
500,-15.644998550415
600,-16.3809566497803
700,-17.2756652832031
800,-18.2890529632568
900,-19.4195785522461
1000,-20.5793857574463
1100,-21.4925899505615
1200,-22.3618698120117
1300,-23.1849098205566
1400,-23.9724998474121
1500,-24.8132648468018
1600,-25.7318630218506
1700,-25.7233867645264
1800,-25.7210750579834
1900,-25.7549819946289
2000,-25.7064323425293
2100,-25.6262855529785
2200,-25.57080078125
2300,-25.5777359008789
2400,-25.750358581543
2500,-25.4906539916992
2600,-25.434398651123
2700,-25.4482688903809
2800,-25.5114612579346
2900,-25.6455516815186
3000,-25.7742481231689
3100,-25.4868011474609
3200,-25.4274616241455
3300,-25.4397926330566
3400,-25.5268745422363
3500,-25.4058837890625
3600,-25.4058837890625
3700,-25.5307273864746
3800,-25.6717548370361
3900,-25.3881587982178
4000,-25.328821182251
4100,-25.3303623199463
4200,-25.3766002655029
4300,-25.5076084136963
4400,-25.6925621032715
4500,-25.4035720825195
4600,-25.3419208526611
4700,-25.352710723877
4800,-25.4552059173584
4900,-25.328821182251
5000,-25.328821182251
5100,-25.4505805969238
5200,-25.6694412231445
5300,-25.3665809631348
5400,-25.2972240447998
5500,-25.2841243743896
5600,-25.2841243743896
5700,-25.352710723877
5800,-25.2910594940186
5900,-25.3026180267334
6000,-25.3557929992676
6100,-25.2810401916504
6200,-25.2864360809326
6300,-25.2663993835449
6400,-25.2648582458496
6500,-25.3141784667969
6600,-25.2055187225342
6700,-25.2062892913818
6800,-25.3411502838135
6900,-25.4852600097656
7000,-25.5892963409424
7100,-25.3095550537109
7200,-25.2563800811768
7300,-25.2717933654785
7400,-25.4783248901367
7500,-25.7865791320801
7600,-25.4043426513672
7700,-25.2633171081543
7800,-25.261775970459
7900,-25.2525272369385
8000,-25.2532978057861
8100,-25.2517566680908
8200,-25.2525272369385
8300,-25.2694816589355
8400,-25.4528923034668
8500,-25.3118667602539
8600,-25.2479038238525
8700,-25.2586917877197
8800,-25.391242980957
8900,-25.2602348327637
9000,-25.2602348327637
9100,-25.3778953552246
9200,-25.7383060455322
9300,-25.7180233001709
9400,-25.3625144958496
9500,-25.2451305389404
9600,-25.2456550598145
9700,-25.2762355804443
9800,-25.4686470031738
9900,-25.3250637054443
10000,-25.237735748291
10100,-25.2398014068604
10200,-25.3258647918701
10300,-25.2416191101074
10400,-25.2421436309814
10500,-25.3675117492676
10600,-25.6616497039795
10700,-25.3508358001709
10800,-25.2758388519287
10900,-25.239372253418
11000,-25.239896774292
11100,-25.3683471679688
11200,-25.5106678009033
11300,-25.269983291626
11400,-25.2381401062012
11500,-25.2702617645264
11600,-25.3871517181396
11700,-25.2682266235352
11800,-25.2695217132568
11900,-25.3987426757813
12000,-25.3468647003174
12100,-25.2433528900146
12200,-25.2446479797363
12300,-25.2590427398682
12400,-25.2595672607422
12500,-25.2824401855469
12600,-25.2598457336426
12700,-25.2711601257324
12800,-25.4628009796143
12900,-25.768497467041
13000,-25.3960342407227
13100,-25.2624683380127
13200,-25.2622222900391
13300,-25.3737182617188
13400,-25.6277809143066
13500,-25.3300704956055
13600,-25.2643203735352
13700,-25.2740917205811
13800,-25.461109161377
13900,-25.3444976806641
14000,-25.2702693939209
14100,-25.2777309417725
14200,-25.2713184356689
14300,-25.2733840942383
14400,-25.3694686889648
14500,-25.2644157409668
14600,-25.2657108306885
14700,-25.4088020324707
14800,-25.3715648651123
14900,-25.2464752197266
15000,-25.2469997406006
15100,-25.2768096923828
15200,-25.4615154266357
15300,-25.3348846435547
15400,-25.2768402099609
15500,-25.2896957397461
15600,-25.4420356750488
15700,-25.2776432037354
15800,-25.2735443115234
15900,-25.3588390350342
16000,-25.6830310821533
16100,-25.5718116760254
16200,-25.3226509094238
16300,-25.2630653381348
16400,-25.2635898590088
16500,-25.3404064178467
16600,-25.6091136932373
16700,-25.3437671661377
16800,-25.2826404571533
16900,-25.2947254180908
17000,-25.4031391143799
17100,-25.2749671936035
17200,-25.2754917144775
17300,-25.3931522369385
17400,-25.6595458984375
17500,-25.3541278839111
17600,-25.2814426422119
17700,-25.278112411499
17800,-25.278636932373
17900,-25.4093990325928
18000,-25.4137763977051
18100,-25.2825222015381
18200,-25.2822761535645
18300,-25.3745059967041
18400,-25.2894897460938
18500,-25.2738304138184
18600,-25.2743549346924
18700,-25.3935585021973
18800,-25.6745948791504
18900,-25.3606986999512
19000,-25.2833881378174
19100,-25.2854537963867
19200,-25.2867488861084
19300,-25.3543186187744
19400,-25.2993583679199
19500,-25.3145236968994
19600,-25.5192680358887
19700,-25.7818088531494
19800,-25.4178218841553
19900,-25.2927322387695
20000,-25.2932567596436
20100,-25.3978176116943
20200,-25.2927646636963
20300,-25.294059753418
20400,-25.3123073577881
20500,-25.2958793640137
20600,-25.3010272979736
20700,-25.3832378387451
20800,-25.3236541748047
20900,-25.3365077972412
21000,-25.5343151092529
21100,-25.8068752288818
21200,-25.4336395263672
21300,-25.3031558990479
21400,-25.3029098510742
21500,-25.4190292358398
21600,-25.4087657928467
21700,-25.2882995605469
21800,-25.2895946502686
21900,-25.3178615570068
22000,-25.5033397674561
22100,-25.3736267089844
22200,-25.3040218353271
22300,-25.2929878234863
22400,-25.294282913208
22500,-25.3040542602539
22600,-25.2968730926514
22700,-25.3713779449463
22800,-25.679386138916
22900,-25.7700748443604
23000,-25.4137954711914
23100,-25.2964115142822
23200,-25.2969360351563
23300,-25.4238452911377
23400,-25.674825668335
23500,-25.3809680938721
23600,-25.2905578613281
23700,-25.2926235198975
23800,-25.4403381347656
23900,-25.3090839385986
24000,-25.308837890625
24100,-25.4141693115234
24200,-25.3175926208496
24300,-25.3196582794189
24400,-25.3024578094482
24500,-25.3052940368652
24600,-25.3150672912598
24700,-25.4519939422607
24800,-25.3862438201904
24900,-25.2850437164307
25000,-25.2863388061523
25100,-25.4317436218262
25200,-25.4060649871826
25300,-25.2856006622314
25400,-25.2861251831055
25500,-25.4122619628906
25600,-25.3573017120361
25700,-25.3593673706055
25800,-25.2982406616211
25900,-25.3095531463623
26000,-25.3956184387207
26100,-25.4231147766113
26200,-25.3488883972168
26300,-25.2584781646729
26400,-25.2605438232422
26500,-25.2356357574463
26600,-25.236930847168
26700,-25.18967628479
26800,-25.1863479614258
26900,-25.2724132537842
27000,-25.1735248565674
27100,-25.1748199462891
27200,-25.31174659729
27300,-25.2459964752197
27400,-25.2496032714844
27500,-25.3464584350586
27600,-25.2891845703125
27700,-25.3028087615967
27800,-25.4274063110352
27900,-25.7793407440186
28000,-25.6087837219238
28100,-25.4574928283691
28200,-25.4110088348389
28300,-25.3229103088379
28400,-25.3265171051025
28500,-25.2276287078857
28600,-25.2281532287598
28700,-25.3049697875977
28800,-25.4781169891357
28900,-25.3776893615723
29000,-25.2710952758789
29100,-25.2723903656006
29200,-25.4123992919922
29300,-25.3150520324707
29400,-25.3132648468018
29500,-25.4085788726807
29600,-25.4206619262695
29700,-25.3194618225098
29800,-25.3215274810791
29900,-25.3235931396484
30000,-25.3241176605225
30100,-25.4479446411133
30200,-25.7089443206787
30300,-25.406608581543
30400,-25.2961616516113
30500,-25.2966842651367
30600,-25.4212818145752
30700,-25.3262481689453
30800,-25.3267726898193
30900,-25.3843231201172
31000,-25.2715644836426
31100,-25.2720890045166
31200,-25.3404293060303
31300,-25.3170642852783
31400,-25.316047668457
31500,-25.4082775115967
31600,-25.3417568206787
31700,-25.2467212677002
31800,-25.2495574951172
31900,-25.4003562927246
32000,-25.4124393463135
32100,-25.3066158294678
32200,-25.3079109191895
32300,-25.3885822296143
32400,-25.2604103088379
32500,-25.1954307556152
32600,-25.1982669830322
32700,-25.2897262573242
32800,-25.2902507781982
32900,-25.373233795166
33000,-25.3013172149658
33100,-25.2062835693359
33200,-25.2083492279053
33300,-25.360689163208
33400,-25.5207347869873
33500,-25.3617382049561
33600,-25.3591785430908
33700,-25.4514102935791
33800,-25.420337677002
33900,-25.267505645752
34000,-25.2056083679199
34100,-25.2176914215088
34200,-25.3523082733154
34300,-25.3751811981201
34400,-25.3063468933105
34500,-25.3153495788574
34600,-25.3073959350586
34700,-25.3102321624756
34800,-25.4618015289307
34900,-25.3528957366943
35000,-25.3534202575684
35100,-25.3886222839355
35200,-25.3891468048096
35300,-25.381965637207
35400,-25.3717002868652
35500,-25.3791618347168
35600,-25.5584735870361
35700,-25.4033298492432
35800,-25.3344955444336
35900,-25.3434982299805
36000,-25.5266628265381
36100,-25.3746013641357
36200,-25.3689613342285
36300,-25.4450073242188
36400,-25.5079536437988
36500,-25.4005889892578
36600,-25.4018840789795
36700,-25.3631057739258
36800,-25.3705654144287
36900,-25.4273471832275
37000,-25.7052993774414
37100,-25.4438076019287
37200,-25.3688106536865
37300,-25.3708763122559
37400,-25.5155086517334
37500,-25.3973560333252
37600,-25.3978805541992
37700,-25.4962749481201
37800,-25.3827457427979
37900,-25.3832702636719
38000,-25.3745460510254
38100,-25.3820056915283
38200,-25.3948612213135
38300,-25.4185047149658
38400,-25.3612308502197
38500,-25.3748569488525
38600,-25.3931045532227
38700,-25.4660701751709
38800,-25.3810539245605
38900,-25.3846607208252
39000,-25.4005966186523
39100,-25.5005340576172
39200,-25.3908576965332
39300,-25.3921527862549
39400,-25.3857402801514
39500,-25.3831825256348
39600,-25.3837070465088
39700,-25.4381771087646
39800,-25.3708839416504
39900,-25.3806571960449
40000,-25.3881168365479
40100,-25.5335216522217
40200,-25.5417518615723
40300,-25.3997077941895
40400,-25.3986911773682
40500,-25.5024814605713
40600,-25.3874092102051
40700,-25.3879337310791
40800,-25.3899993896484
40900,-25.3897533416748
41000,-25.398754119873
41100,-25.4617004394531
41200,-25.3936386108398
41300,-25.3941631317139
41400,-25.5256958007813
41500,-25.896125793457
41600,-25.5313682556152
41700,-25.4070491790771
41800,-25.4075736999512
41900,-25.399621963501
42000,-25.4009170532227
42100,-25.4068355560303
42200,-25.3942584991455
42300,-25.3994064331055
42400,-25.56715965271
42500,-25.479061126709
42600,-25.4002094268799
42700,-25.4015045166016
42800,-25.4074230194092
42900,-25.552827835083
43000,-25.5410213470459
43100,-25.5877838134766
43200,-25.5251159667969
43300,-25.4192924499512
43400,-25.4205875396729
43500,-25.4126358032227
43600,-25.412389755249
43700,-25.5215740203857
43800,-25.7594547271729
43900,-25.5041275024414
44000,-25.4013862609863
44100,-25.4034519195557
44200,-25.5388374328613
44300,-25.4206829071045
44400,-25.4212074279785
44500,-25.5488872528076
44600,-25.455394744873
44700,-25.4559192657471
44800,-25.3978748321533
44900,-25.4045639038086
45000,-25.4251251220703
45100,-25.4865303039551
45200,-25.4215507507324
45300,-25.4166793823242
45400,-25.4179744720459
45500,-25.5618381500244
45600,-25.5438671112061
45700,-25.4226303100586
45800,-25.4231548309326
45900,-25.530797958374
46000,-25.4249744415283
46100,-25.42626953125
46200,-25.4190883636475
46300,-25.4304008483887
46400,-25.430154800415
46500,-25.476146697998
46600,-25.416561126709
46700,-25.4116916656494
46800,-25.4129867553711
46900,-25.4266109466553
47000,-25.4325313568115
47100,-25.4315128326416
47200,-25.431266784668
47300,-25.5265808105469
47400,-25.4238395690918
47500,-25.4259052276611
47600,-25.4248886108398
47700,-25.4346599578857
47800,-25.4344139099121
47900,-25.4981307983398
48000,-25.4300689697266
48100,-25.4398403167725
48200,-25.6245460510254
48300,-25.9302425384521
48400,-25.5624027252197
48500,-25.4357719421387
48600,-25.4362964630127
48700,-25.4283447265625
48800,-25.4296398162842
48900,-25.5033740997314
49000,-25.4353122711182
49100,-25.4312133789063
49200,-25.4317359924316
49300,-25.496223449707
49400,-25.4312438964844
49500,-25.4325389862061
49600,-25.569465637207
49700,-25.4728908538818
49800,-25.4556903839111
49900,-25.5055351257324
50000,-25.5438213348389
50100,-25.4428310394287
50200,-25.443567276001
50300,-25.4697322845459
50400,-25.4835681915283
50500,-25.4781379699707
50600,-25.5582466125488
50700,-25.479606628418
50800,-25.4302501678467
50900,-25.4302139282227
51000,-25.5573329925537
51100,-25.4386177062988
51200,-25.4385833740234
51300,-25.556453704834
51400,-25.4284915924072
51500,-25.4261436462402
51600,-25.4484577178955
51700,-25.4576683044434
51800,-25.4915409088135
51900,-25.4922752380371
52000,-25.43212890625
52100,-25.4374885559082
52200,-25.4389934539795
52300,-25.5830669403076
52400,-25.6007556915283
52500,-25.4550685882568
52600,-25.4534912109375
52700,-25.5305194854736
52800,-25.4249057769775
52900,-25.4210166931152
53000,-25.4209804534912
53100,-25.4109268188477
53200,-25.4108905792236
53300,-25.5279903411865
53400,-25.4616794586182
53500,-25.4454612731934
53600,-25.4454250335693
53700,-25.5740852355957
53800,-25.5786724090576
53900,-25.4422340393066
54000,-25.441427230835
54100,-25.5400333404541
54200,-25.432107925415
54300,-25.4328422546387
54400,-25.4189357757568
54500,-25.4250640869141
54600,-25.4566249847412
54700,-25.5143871307373
54800,-25.4380569458008
54900,-25.4426460266113
55000,-25.4202613830566
55100,-25.4209957122803
55200,-25.5573616027832
55300,-25.4247760772705
55400,-25.4239692687988
55500,-25.4385757446289
55600,-25.4400806427002
55700,-25.5101737976074
55800,-25.4384670257568
55900,-25.4376621246338
56000,-25.4360847473145
56100,-25.5161933898926
56200,-25.4360122680664
56300,-25.43674659729
56400,-25.5638656616211
56500,-25.6285629272461
56600,-25.5946197509766
56700,-25.6230964660645
56800,-25.5205669403076
56900,-25.4211177825928
57000,-25.4226226806641
57100,-25.4649715423584
57200,-25.5666599273682
57300,-25.441011428833
57400,-25.440975189209
57500,-25.4663696289063
57600,-25.4285717010498
57700,-25.4277648925781
57800,-25.5402431488037
57900,-25.4300060272217
58000,-25.4284286499023
58100,-25.5316581726074
58200,-25.55859375
58300,-25.5023021697998
58400,-25.4336795806885
58500,-25.4421195983887
58600,-25.4451656341553
58700,-25.503698348999
58800,-25.4304523468018
58900,-25.4273338317871
59000,-25.4280681610107
59100,-25.563663482666
59200,-25.5790405273438
59300,-25.4372081756592
59400,-25.4356307983398
59500,-25.5388603210449
59600,-25.4247703552246
59700,-25.4247341156006
59800,-25.4347152709961
59900,-25.4277439117432
60000,-25.4277076721191
60100,-25.5216903686523
60200,-25.4399662017822
60300,-25.4322242736816
60400,-25.4337291717529
60500,-25.5770320892334
60600,-25.5669784545898
60700,-25.4328498840332
60800,-25.4320449829102
60900,-25.5414390563965
61000,-25.4288902282715
61100,-25.4288539886475
61200,-25.4303588867188
61300,-25.4287815093994
61400,-25.4287452697754
61500,-25.4849662780762
61600,-25.4340686798096
61700,-25.4509868621826
61800,-25.6150951385498
61900,-25.907901763916
62000,-25.5472068786621
62100,-25.4277229309082
62200,-25.4276866912842
62300,-25.4284210205078
62400,-25.4291553497314
62500,-25.5015602111816
62600,-25.4283142089844
62700,-25.4282779693604
62800,-25.4282417297363
62900,-25.4821510314941
63000,-25.4235458374023
63100,-25.424280166626
63200,-25.424243927002
63300,-25.551362991333
63400,-25.6229972839355
63500,-25.6360607147217
63600,-25.5520267486572
63700,-25.4248352050781
63800,-25.4240283966064
63900,-25.4278450012207
64000,-25.5464878082275
64100,-25.4169845581055
64200,-25.4169483184814
64300,-25.4986000061035
64400,-25.4168758392334
64500,-25.4176120758057
64600,-25.5586013793945
64700,-25.4190807342529
64800,-25.4182739257813
64900,-25.5253562927246
65000,-25.4166603088379
65100,-25.4166240692139
65200,-25.4250659942627
65300,-25.4250297546387
65400,-25.4380950927734
65500,-25.4950847625732
65600,-25.4310874938965
65700,-25.4248867034912
65800,-25.4263916015625
65900,-25.5735473632813
66000,-25.5742816925049
66100,-25.4247417449951
66200,-25.4231643676758
66300,-25.5209999084473
66400,-25.4161567687988
66500,-25.4168910980225
66600,-25.421480178833
66700,-25.4206733703613
66800,-25.4206371307373
66900,-25.4961223602295
67000,-25.4236469268799
67100,-25.416675567627
67200,-25.4166393280029
67300,-25.5337409973145
67400,-25.5776309967041
67500,-25.4257793426514
67600,-25.4234313964844
67700,-25.5197238922119
67800,-25.4179649353027
67900,-25.4186992645264
68000,-25.421745300293
68100,-25.4232521057129
68200,-25.4216747283936
68300,-25.4917659759521
68400,-25.4223728179932
68500,-25.4308128356934
68600,-25.6134185791016
68700,-25.9532337188721
68800,-25.5671081542969
68900,-25.422191619873
69000,-25.4206161499023
69100,-25.4136428833008
69200,-25.4136066436768
69300,-25.5422687530518
69400,-25.5692043304443
69500,-25.4196643829346
69600,-25.4180870056152
69700,-25.4858665466309
69800,-25.4149322509766
69900,-25.4148960113525
70000,-25.5381622314453
70100,-25.4864940643311
70200,-25.4502372741699
70300,-25.4764041900635
70400,-25.5156707763672
70500,-25.4123687744141
70600,-25.4138736724854
70700,-25.4192333221436
70800,-25.5532875061035
70900,-25.4168491363525
71000,-25.4160423278809
71100,-25.4622440338135
71200,-25.4113464355469
71300,-25.4120807647705
71400,-25.5407409667969
71500,-25.4158630371094
71600,-25.41428565979
71700,-25.5205974578857
71800,-25.414213180542
71900,-25.4126358032227
72000,-25.4164524078369
72100,-25.4210414886475
72200,-25.4202346801758
72300,-25.4826202392578
72400,-25.4147682189941
72500,-25.4124202728271
72600,-25.4131546020508
72700,-25.5448970794678
72800,-25.5595035552979
72900,-25.4199810028076
73000,-25.4191761016846
73100,-25.520092010498
73200,-25.4060020446777
73300,-25.4059658050537
73400,-25.4120960235596
73500,-25.4174537658691
73600,-25.4174175262451
73700,-25.4913635253906
73800,-25.4165744781494
73900,-25.4072914123535
74000,-25.4080257415771
74100,-25.5490169525146
74200,-25.5497512817383
74300,-25.411771774292
74400,-25.4109649658203
74500,-25.5180473327637
74600,-25.404727935791
74700,-25.4054622650146
74800,-25.4108219146729
74900,-25.4138679504395
75000,-25.4130611419678
75100,-25.4916305541992
75200,-25.414529800415
75300,-25.4206600189209
75400,-25.412145614624
75500,-25.412109375
75600,-25.5392284393311
75700,-25.4151210784912
75800,-25.4150848388672
75900,-25.4050312042236
76000,-25.4057655334473
76100,-25.4504261016846
76200,-25.48583984375
76300,-25.4079685211182
76400,-25.4079322814941
76500,-25.4703178405762
76600,-25.4063205718994
76700,-25.4062843322754
76800,-25.5295505523682
76900,-25.7761173248291
77000,-25.6458435058594
77100,-25.6458072662354
77200,-25.5170745849609
77300,-25.4006729125977
