Trace
Swept SA
A.16.09,N9010A
544 B25 B40 EXM FS1 MPB P44 RTL ,01
Segment,0
Number of Points,10001
Sweep Time,0.002666666667
Start Frequency,0
Stop Frequency,3000000
Average Count,100
Average Type,LogPower(Video)
RBW,10000
RBW Filter,Gaussian
RBW Filter BW,3dB
VBW,100000
Sweep Type,Swept
X Axis Scale,Lin
PreAmp State,Off
PreAmp Band,Low
Trigger Source,Free
Trigger Level,1.2
Trigger Slope,Positive
Trigger Delay,0
Phase Noise Optimization,Narrow
Swept If Gain,Low
FFT If Gain,Autorange
RF Coupling,DC
FFT Width,411900
Ext Ref,10000000
Input,RF
RF Calibrator,Off
Attenuation,10
Ref Level Offset,0
External Gain,0
Trace Type,Maxhold
Detector,Peak
Trace Math,Off
Trace Math Oper1,Trace5
Trace Math Oper2,Trace6
Trace Math Offset,0
Normalize,Off
Trace Name,Trace1
X Axis Units,Hz
Y Axis Units,dBm
DATA
0,-13.1762685775757
300,-13.224139213562
600,-13.2898225784302
900,-13.3744316101074
1200,-13.4768533706665
1500,-13.5692558288574
1800,-13.6594305038452
2100,-13.7663049697876
2400,-13.8909921646118
2700,-14.0323781967163
3000,-14.1915769577026
3300,-14.3674745559692
3600,-14.5611848831177
3900,-14.7715940475464
4200,-15.0009288787842
4500,-15.2491893768311
4800,-15.5141496658325
5100,-15.7980356216431
5400,-16.0997333526611
5700,-16.4192428588867
6000,-16.7565670013428
6300,-17.0538120269775
6600,-17.3376960754395
6900,-17.6327152252197
7200,-17.9388656616211
7500,-18.2561492919922
7800,-18.5834541320801
8100,-18.9207763671875
8400,-19.2670059204102
8700,-19.6221408843994
9000,-19.9850692749023
9300,-20.3573627471924
9600,-20.7363376617432
9900,-21.123104095459
10200,-21.5154361724854
10500,-21.9077701568604
10800,-22.2989902496338
11100,-22.6957759857178
11400,-23.0970153808594
11700,-23.3813610076904
12000,-23.6568012237549
12300,-23.9277877807617
12600,-24.1586952209473
12900,-24.3038806915283
13200,-24.4468402862549
13500,-24.5897998809814
13800,-24.7360992431641
14100,-24.8835105895996
14400,-25.0342636108398
14700,-25.1916942596436
15000,-25.3546943664551
15300,-25.5243721008301
15600,-25.7040691375732
15900,-25.8937854766846
16200,-25.9632682800293
16500,-25.9826545715332
16800,-26.0142860412598
17100,-26.0481433868408
17400,-26.0764350891113
17700,-26.0913677215576
18000,-26.0918292999268
18300,-26.0978546142578
18600,-26.1194667816162
18900,-26.1588916778564
19200,-26.1693706512451
19500,-26.133092880249
19800,-26.1179656982422
20100,-26.0828018188477
20400,-26.0509757995605
20700,-26.04030418396
21000,-26.041877746582
21300,-26.0579223632813
21600,-26.0962333679199
21900,-26.1556968688965
22200,-26.2363128662109
22500,-26.2668323516846
22800,-26.2728576660156
23100,-26.2989234924316
23400,-26.2904777526855
23700,-26.2553119659424
24000,-26.2412986755371
24300,-26.2417583465576
24600,-26.2533512115479
24900,-26.286096572876
25200,-26.3110485076904
25500,-26.2636375427246
25800,-26.2373790740967
26100,-26.2322731018066
26400,-26.2349586486816
26700,-26.2554569244385
27000,-26.2982215881348
27300,-26.2686233520508
27600,-26.1722278594971
27900,-26.0980987548828
28200,-26.0440082550049
28500,-26.0110702514648
28800,-25.9992828369141
29100,-26.0008563995361
29400,-26.0135631561279
29700,-26.047420501709
30000,-26.0467681884766
30300,-26.0416603088379
30600,-26.0454616546631
30900,-26.0670738220215
31200,-26.1098365783691
31500,-26.042387008667
31800,-25.9882965087891
32100,-25.955358505249
32400,-25.9435729980469
32700,-25.9440326690674
33000,-25.9567375183105
33300,-25.9905967712402
33600,-26.0456066131592
33900,-26.121768951416
34200,-26.088830947876
34500,-26.0492134094238
34800,-26.0307464599609
35100,-26.028980255127
35400,-26.0361194610596
35700,-26.0632991790771
36000,-26.111629486084
36300,-26.1799983978271
36600,-26.2372360229492
36900,-26.2555084228516
37200,-26.2838001251221
37500,-26.2586555480957
37800,-26.2546615600586
38100,-26.2584609985352
38400,-26.2611484527588
38700,-26.2582683563232
39000,-26.2041778564453
39300,-26.1723518371582
39600,-26.1594524383545
39900,-26.1610260009766
40200,-26.1737308502197
40500,-26.2075901031494
40800,-26.2325420379639
41100,-26.2497005462646
41400,-26.271312713623
41700,-26.2773399353027
42000,-26.3022918701172
42300,-26.2994117736816
42600,-26.2809448242188
42900,-26.2802925109863
43200,-26.2896575927734
43500,-26.3057041168213
43800,-26.2950305938721
44100,-26.2943782806396
44400,-26.3015174865723
44700,-26.3264694213867
45000,-26.3035507202148
45300,-26.2995567321777
45600,-26.3033561706543
45900,-26.3216285705566
46200,-26.3131828308105
46500,-26.3147563934326
46800,-26.3274612426758
47100,-26.3056564331055
47400,-26.3027763366699
47700,-26.2909908294678
48000,-26.2858848571777
48300,-26.2896842956543
48600,-26.3101825714111
48900,-26.3351345062256
49200,-26.3344802856445
49500,-26.3360538482666
49800,-26.3387413024902
50100,-26.3575668334961
50400,-26.3607978820801
50700,-26.3718223571777
51000,-26.3205032348633
51300,-26.2914505004883
51600,-26.2846622467041
51900,-26.2856674194336
52200,-26.303373336792
52500,-26.3199634552002
52800,-26.2864570617676
53100,-26.2741031646729
53400,-26.2739963531494
53700,-26.2872467041016
54000,-26.3082904815674
54300,-26.3115234375
54600,-26.3192081451416
54900,-26.2957210540771
55200,-26.28782081604
55500,-26.287712097168
55800,-26.3054161071777
56100,-26.3309135437012
56400,-26.3408260345459
56700,-26.3206787109375
57000,-26.3016452789307
57300,-26.2993106842041
57600,-26.3058815002441
57900,-26.3157939910889
58200,-26.3167991638184
58500,-26.3333892822266
58800,-26.3210353851318
59100,-26.2986621856689
59400,-26.2952136993408
59700,-26.2995586395264
60000,-26.3194904327393
60300,-26.3115901947021
60600,-26.3125953674316
60900,-26.308032989502
61200,-26.310152053833
61500,-26.3234043121338
61800,-26.3065967559814
62100,-26.3009223937988
62400,-26.3041534423828
62700,-26.3263111114502
63000,-26.3328838348389
63300,-26.3249816894531
63600,-26.3204212188721
63900,-26.3136329650879
64200,-26.3157520294189
64500,-26.3200969696045
64800,-26.3066291809082
65100,-26.2987289428711
65400,-26.2997341156006
65700,-26.3174381256104
66000,-26.3228969573975
66300,-26.323902130127
66600,-26.3393802642822
66900,-26.3170070648193
67200,-26.3091049194336
67500,-26.3101100921631
67800,-26.3244762420654
68100,-26.3243675231934
68400,-26.3220329284668
68700,-26.3297176361084
69000,-26.3218173980713
69300,-26.3139152526855
69600,-26.3126945495605
69900,-26.3047943115234
70200,-26.3013458251953
70500,-26.3012371063232
70800,-26.3178291320801
71100,-26.3077011108398
71400,-26.3009147644043
71700,-26.3030319213867
72000,-26.3196239471436
72300,-26.3106098175049
72600,-26.3027095794678
72900,-26.2903537750244
73200,-26.290246963501
73500,-26.3034973144531
73800,-26.3056163787842
74100,-26.2999420166016
74400,-26.3009471893311
74700,-26.3019523620605
75000,-26.3040714263916
75300,-26.3128700256348
75600,-26.3138751983643
75900,-26.3104267120361
76200,-26.3114318847656
76500,-26.3090972900391
76800,-26.3034229278564
77100,-26.3055419921875
77400,-26.3199062347412
77700,-26.3108921051025
78000,-26.3018779754639
78300,-26.2973175048828
78600,-26.3016624450684
78900,-26.3048934936523
79200,-26.3270511627197
79500,-26.3102436065674
79800,-26.3001174926758
80100,-26.3000087738037
80400,-26.290994644165
80700,-26.2853202819824
81000,-26.2885513305664
81300,-26.3073692321777
81600,-26.2994689941406
81900,-26.3004741668701
82200,-26.2914600372314
82500,-26.2924652099609
82800,-26.294584274292
83100,-26.2967014312744
83400,-26.296594619751
83700,-26.3076190948486
84000,-26.2997188568115
84300,-26.2940444946289
84600,-26.2961616516113
84900,-26.2993946075439
85200,-26.2992858886719
85500,-26.304744720459
85800,-26.2901630401611
86100,-26.2900562286377
86400,-26.2921752929688
86700,-26.2920665740967
87000,-26.2941856384277
87300,-26.2929630279541
87600,-26.2961959838867
87900,-26.2994270324707
88200,-26.3004322052002
88500,-26.3058910369873
88800,-26.3068962097168
89100,-26.2967681884766
89400,-26.289981842041
89700,-26.2920989990234
90000,-26.3031253814697
90300,-26.2852039337158
90600,-26.2795295715332
90900,-26.2816486358643
91200,-26.2871074676514
91500,-26.2892246246338
91800,-26.2913436889648
92100,-26.2990283966064
92400,-26.2978076934814
92700,-26.2910194396973
93000,-26.2931385040283
93300,-26.2919178009033
93600,-26.2918090820313
93900,-26.3028335571289
94200,-26.2860260009766
94500,-26.2848052978516
94800,-26.2913761138916
95100,-26.2845897674561
95400,-26.2855949401855
95700,-26.3032989501953
96000,-26.317663192749
96300,-26.2952899932861
96600,-26.287389755249
96900,-26.2806015014648
97200,-26.2838325500488
97500,-26.2859516143799
97800,-26.2869567871094
98100,-26.3002090454102
98400,-26.2956466674805
98700,-26.295539855957
99000,-26.2809581756592
99300,-26.2741718292236
99600,-26.2762889862061
99900,-26.2761821746826
100200,-26.2759456634521
100500,-26.285665512085
100800,-26.2853660583496
101100,-26.2928581237793
101400,-26.2780857086182
101700,-26.2699928283691
102000,-26.2708053588867
102300,-26.2860927581787
102600,-26.2779998779297
102900,-26.2710189819336
103200,-26.2707195281982
103500,-26.2737598419189
103800,-26.269006729126
104100,-26.2709331512451
104400,-26.2784252166748
104700,-26.2714462280273
105000,-26.2733726501465
105300,-26.2697334289551
105600,-26.2705459594727
105900,-26.2780380249023
106200,-26.2988910675049
106500,-26.2785530090332
106800,-26.2693462371826
107100,-26.2701587677002
107400,-26.2698593139648
107700,-26.2617664337158
108000,-26.2625789642334
108300,-26.2611656188965
108600,-26.2619800567627
108900,-26.2672462463379
109200,-26.2680587768555
109500,-26.2744388580322
109800,-26.2696857452393
110100,-26.2582530975342
110400,-26.2534999847412
110700,-26.2565402984619
111000,-26.2528991699219
111300,-26.254825592041
111600,-26.2623195648193
111900,-26.262020111084
112200,-26.2650585174561
112500,-26.256965637207
112800,-26.2577800750732
113100,-26.2563667297363
113400,-26.2560653686523
113700,-26.2524261474609
114000,-26.2521266937256
114300,-26.2551670074463
114600,-26.2593193054199
114900,-26.2490005493164
115200,-26.2486991882324
115500,-26.2550792694092
115800,-26.2558937072754
116100,-26.2533664703369
116400,-26.2508392333984
116700,-26.2516536712646
117000,-26.2647132873535
117300,-26.2477130889893
117600,-26.2418460845947
117900,-26.2426605224609
118200,-26.2479267120361
118500,-26.2453994750977
118800,-26.2439861297607
119100,-26.252592086792
119400,-26.2589721679688
119700,-26.2542190551758
120000,-26.2483539581299
120300,-26.2436008453369
120600,-26.2477531433105
120900,-26.2474536895752
121200,-26.2382469177246
121500,-26.2390594482422
121800,-26.2309665679932
122100,-26.2317810058594
122400,-26.2370471954346
122700,-26.2400875091553
123000,-26.2431259155273
123300,-26.242826461792
123600,-26.234733581543
123900,-26.2355461120605
124200,-26.2385864257813
124500,-26.2316074371338
124800,-26.2335338592529
125100,-26.2432537078857
125400,-26.2284812927246
125700,-26.2281799316406
126000,-26.2334461212158
126300,-26.2264671325684
126600,-26.2272796630859
126900,-26.2414531707764
127200,-26.2478332519531
127500,-26.2319469451904
127800,-26.224967956543
128100,-26.2257804870605
128400,-26.2310466766357
128700,-26.2229537963867
129000,-26.2226543426514
129300,-26.2357139587402
129600,-26.2309608459473
129900,-26.2317733764648
130200,-26.2247943878174
130500,-26.2233810424805
130800,-26.2342128753662
131100,-26.2661991119385
131400,-26.2325000762939
131700,-26.2188415527344
132000,-26.2185401916504
132300,-26.218240737915
132600,-26.2146015167236
132900,-26.2143001556396
133200,-26.2151145935059
133500,-26.2315139770508
133800,-26.2156276702881
134100,-26.2097606658936
134400,-26.2016677856445
134700,-26.2002544403076
135000,-26.2032947540283
135300,-26.2119007110596
135600,-26.2116012573242
135900,-26.2090740203857
136200,-26.2076606750488
136500,-26.209587097168
136800,-26.2115135192871
137100,-26.2045345306396
137400,-26.2064609527588
137700,-26.2217464447021
138000,-26.2014083862305
138300,-26.1955413818359
138600,-26.1974678039551
138900,-26.2083015441895
139200,-26.2002086639404
139500,-26.2021350860596
139800,-26.2196464538574
140100,-26.2071018218994
140400,-26.1967811584473
140700,-26.1920280456543
141000,-26.1939544677734
141300,-26.214807510376
141600,-26.2334327697754
141900,-26.1997356414795
142200,-26.1871891021729
142500,-26.1868877410889
142800,-26.1999473571777
143100,-26.1929683685303
143400,-26.1804218292236
143700,-26.1812362670898
144000,-26.1942939758301
144300,-26.1895408630371
144600,-26.1892414093018
144900,-26.190055847168
145200,-26.19309425354
145500,-26.1927947998047
145800,-26.1880416870117
146100,-26.1754951477051
146400,-26.1751956939697
146700,-26.1882553100586
147000,-26.1890678405762
147300,-26.1932220458984
147600,-26.1806755065918
147900,-26.1814880371094
148200,-26.1945476531982
148500,-26.1820011138916
148800,-26.1805896759033
149100,-26.1814022064209
149400,-26.1811027526855
149700,-26.1808013916016
150000,-26.1927471160889
150300,-26.1957874298096
150600,-26.1732215881348
150900,-26.1673564910889
151200,-26.1681690216064
151500,-26.1834545135498
151800,-26.184268951416
152100,-26.1906490325928
152400,-26.175874710083
152700,-26.1744613647461
153000,-26.1763896942139
153300,-26.1705226898193
153600,-26.170223236084
153900,-26.1732616424561
154200,-26.1751880645752
154500,-26.1715488433838
154800,-26.1578903198242
155100,-26.1486835479736
155400,-26.1483840942383
155700,-26.1625556945801
156000,-26.1622562408447
156300,-26.1664085388184
156600,-26.1549758911133
156900,-26.1546764373779
157200,-26.1599426269531
157500,-26.1585292816162
157800,-26.1582298278809
158100,-26.16015625
158400,-26.1587429046631
158700,-26.1595554351807
159000,-26.1603698730469
159300,-26.1634082794189
159600,-26.1553153991699
159900,-26.1561298370361
160200,-26.1714153289795
160500,-26.1722278594971
160800,-26.1585693359375
161100,-26.1582698822021
161400,-26.1546287536621
161700,-26.143196105957
162000,-26.1417827606201
162300,-26.1515026092529
162600,-26.1545429229736
162900,-26.1497898101807
163200,-26.1506023406982
163500,-26.1436233520508
163800,-26.1422100067139
164100,-26.1452503204346
164400,-26.1494026184082
164700,-26.1468772888184
165000,-26.1365566253662
165300,-26.1373710632324
165600,-26.1359577178955
165900,-26.133430480957
166200,-26.1331310272217
166500,-26.1383972167969
166800,-26.1358699798584
167100,-26.1277770996094
167400,-26.1285915374756
167700,-26.1294040679932
168000,-26.1302165985107
168300,-26.142162322998
168600,-26.1563358306885
168900,-26.1393375396729
169200,-26.1267910003662
169500,-26.1253776550293
169800,-26.1306438446045
170100,-26.128116607666
170400,-26.1289310455322
170700,-26.138650894165
171000,-26.1283302307129
171300,-26.1213512420654
171600,-26.1210517883301
171900,-26.1185245513916
172200,-26.1171112060547
172500,-26.1179237365723
172800,-26.1142845153809
173100,-26.1139850616455
173400,-26.1248168945313
173700,-26.1222915649414
174000,-26.1119709014893
174300,-26.1116714477539
174600,-26.1258430480957
174900,-26.1132984161377
175200,-26.1129970550537
175500,-26.1138114929199
175800,-26.1224174499512
176100,-26.1221179962158
176400,-26.1251564025879
176700,-26.123743057251
177000,-26.1123104095459
177300,-26.1131248474121
177600,-26.1072578430176
177900,-26.1002788543701
178200,-26.1010913848877
178500,-26.1141510009766
178800,-26.1105117797852
179100,-26.1090984344482
179400,-26.0976657867432
179700,-26.0973644256592
180000,-26.1026306152344
180300,-26.102331161499
180600,-26.1031455993652
180900,-26.0972785949707
181200,-26.0980911254883
181500,-26.0933380126953
181800,-26.0863590240479
182100,-26.088285446167
182400,-26.108024597168
182700,-26.1288776397705
183000,-26.1207828521729
183300,-26.1215972900391
183600,-26.1123905181885
183900,-26.0965042114258
184200,-26.0950908660889
184500,-26.0903377532959
184800,-26.0766792297363
185100,-26.0630207061768
185400,-26.0627193450928
185700,-26.0746650695801
186000,-26.0843849182129
186300,-26.082971572876
186600,-26.0915775299072
186900,-26.0901660919189
187200,-26.089864730835
187500,-26.0862255096436
187800,-26.0848121643066
188100,-26.0923042297363
188400,-26.0897789001465
188700,-26.0794582366943
189000,-26.079158782959
189300,-26.074405670166
189600,-26.0741062164307
189900,-26.0660133361816
190200,-26.0668258666992
190500,-26.0743198394775
190800,-26.0851516723633
191100,-26.0837383270264
191400,-26.0745315551758
191700,-26.0675525665283
192000,-26.0550060272217
192300,-26.0368938446045
192600,-26.0343685150146
192900,-26.0418605804443
193200,-26.0705051422119
193500,-26.0702056884766
193800,-26.0687923431396
194100,-26.0662670135498
194400,-26.0637397766113
194700,-26.066780090332
195000,-26.0742721557617
195300,-26.0572738647461
195600,-26.0558605194092
195900,-26.0600128173828
196200,-26.0574855804443
196500,-26.0538463592529
196800,-26.0568866729736
197100,-26.0565872192383
197400,-26.0729846954346
197700,-26.0615520477295
198000,-26.0590267181396
198300,-26.0587272644043
198600,-26.0517463684082
198900,-26.0514469146729
199200,-26.0522594451904
199500,-26.045280456543
199800,-26.0460929870605
200100,-26.0493049621582
200400,-26.0484046936035
200700,-26.0519561767578
201000,-26.0488300323486
201300,-26.0479297637939
201600,-26.0559349060059
201900,-26.045015335083
202200,-26.0452289581299
202500,-26.0510082244873
202800,-26.0445423126221
203100,-26.0458679199219
203400,-26.062780380249
203700,-26.0451812744141
204000,-26.0420532226563
204300,-26.0411529541016
204600,-26.0413665771484
204900,-26.0426921844482
205200,-26.0440196990967
205500,-26.047571182251
205800,-26.0355396270752
206100,-26.0357513427734
206400,-26.043758392334
206700,-26.0372905731201
207000,-26.0341644287109
207300,-26.0399436950684
207600,-26.0490627288818
207900,-26.0670890808105
208200,-26.0583953857422
208500,-26.0396823883057
208800,-26.0376682281494
209100,-26.0445613861084
209400,-26.0458889007568
209700,-26.0483283996582
210000,-26.0329551696777
210300,-26.033166885376
210600,-26.0322666168213
210900,-26.0313663482666
211200,-26.037145614624
211500,-26.0362453460693
211800,-26.0342330932617
212100,-26.0422382354736
212400,-26.0324325561523
212700,-26.0315322875977
213000,-26.0406513214111
213300,-26.0341854095459
213600,-26.0343971252441
213900,-26.0457439422607
214200,-26.04150390625
214500,-26.0383758544922
214800,-26.0307960510254
215100,-26.0321235656738
215400,-26.0356750488281
215700,-26.0425682067871
216000,-26.0316486358643
216300,-26.0329742431641
216600,-26.0287342071533
216900,-26.0311737060547
217200,-26.0480861663818
217500,-26.0360527038574
217800,-26.0362663269043
218100,-26.0375919342041
218400,-26.0333518981934
218700,-26.0324516296387
219000,-26.0449104309082
219300,-26.0317649841309
219600,-26.0264110565186
219900,-26.0266246795654
220200,-26.0368576049805
220500,-26.0292778015137
220800,-26.0306034088135
221100,-26.0341567993164
221400,-26.0243492126465
221700,-26.0245628356934
222000,-26.0258884429932
222300,-26.0216484069824
222600,-26.0218620300293
222900,-26.0365467071533
223200,-26.026741027832
223500,-26.0236148834229
223800,-26.0138072967529
224100,-26.0140209197998
224400,-26.0198001861572
224700,-26.0278053283691
225000,-26.0413780212402
225300,-26.0248928070068
225600,-26.0239925384521
225900,-26.0186386108398
