Trace
Swept SA
A.16.09,N9010A
544 B25 B40 EXM FS1 MPB P44 RTL ,01
Segment,0
Number of Points,10001
Sweep Time,0.002666666667
Start Frequency,0
Stop Frequency,3000000
Average Count,100
Average Type,LogPower(Video)
RBW,10000
RBW Filter,Gaussian
RBW Filter BW,3dB
VBW,100000
Sweep Type,Swept
X Axis Scale,Lin
PreAmp State,Off
PreAmp Band,Low
Trigger Source,Free
Trigger Level,1.2
Trigger Slope,Positive
Trigger Delay,0
Phase Noise Optimization,Narrow
Swept If Gain,Low
FFT If Gain,Autorange
RF Coupling,DC
FFT Width,411900
Ext Ref,10000000
Input,RF
RF Calibrator,Off
Attenuation,10
Ref Level Offset,0
External Gain,0
Trace Type,Maxhold
Detector,Peak
Trace Math,Off
Trace Math Oper1,Trace5
Trace Math Oper2,Trace6
Trace Math Offset,0
Normalize,Off
Trace Name,Trace1
X Axis Units,Hz
Y Axis Units,dBm
DATA
0,-14.6711149215698
300,-14.6700019836426
600,-14.6766815185547
900,-14.7034006118774
1200,-14.7479314804077
1500,-14.8102750778198
1800,-14.8904304504395
2100,-14.9883995056152
2400,-15.1019535064697
2700,-15.2322063446045
3000,-15.3769330978394
3300,-15.5361309051514
3600,-15.7098026275635
3900,-15.8979463577271
4200,-16.0983352661133
4500,-16.3098583221436
4800,-16.5325145721436
5100,-16.7651882171631
5400,-17.0067691802979
5700,-17.2550296783447
6000,-17.5099716186523
6300,-17.7704772949219
6600,-18.0343246459961
6900,-18.3003978729248
7200,-18.568696975708
7500,-18.8336563110352
7800,-19.0963897705078
8100,-19.356897354126
8400,-19.6073837280273
8700,-19.8489646911621
9000,-20.0805263519287
9300,-20.3014144897461
9600,-20.5078315734863
9900,-20.6997737884521
10200,-20.8772449493408
10500,-21.0391311645508
10800,-21.1843166351318
11100,-21.3150291442871
11400,-21.4334964752197
11700,-21.5386047363281
12000,-21.6325798034668
12300,-21.7198753356934
12600,-21.8004913330078
12900,-21.8744277954102
13200,-21.9483642578125
13500,-22.0234127044678
13800,-22.0603466033936
14100,-22.0875244140625
14400,-22.1314029693604
14700,-22.1908664703369
15000,-22.2670288085938
15300,-22.3587779998779
15600,-22.4140529632568
15900,-22.4712886810303
16200,-22.5429992675781
16500,-22.5646114349365
16800,-22.5305595397949
17100,-22.5187740325928
17400,-22.5203456878662
17700,-22.5341663360596
18000,-22.5702514648438
18300,-22.6027317047119
18600,-22.6065311431885
18900,-22.5947456359863
19200,-22.5785045623779
19500,-22.5591907501221
19800,-22.5304412841797
20100,-22.5186557769775
20400,-22.520227432251
20700,-22.5329341888428
21000,-22.5679054260254
21300,-22.5249481201172
21600,-22.4908962249756
21900,-22.4791107177734
22200,-22.4806823730469
22500,-22.4933891296387
22800,-22.5294742584229
23100,-22.5855979919434
23400,-22.5559997558594
23700,-22.5030212402344
24000,-22.4723091125488
24300,-22.4616374969482
24600,-22.4632091522217
24900,-22.478141784668
25200,-22.5044727325439
25500,-22.5015926361084
25800,-22.4642009735107
26100,-22.447961807251
26400,-22.4473075866699
26700,-22.4566745758057
27000,-22.4557571411133
27300,-22.4484233856201
27600,-22.4511089324951
27900,-22.470495223999
28200,-22.5110340118408
28500,-22.5727233886719
28800,-22.6288471221924
29100,-22.5814361572266
29400,-22.5551776885986
29700,-22.5500717163086
30000,-22.5527572631836
30300,-22.5253849029541
30600,-22.4768600463867
30900,-22.4494895935059
31200,-22.4432697296143
31500,-22.4459552764893
31800,-22.4664535522461
32100,-22.5069923400879
32400,-22.5686817169189
32700,-22.5994644165039
33000,-22.5762825012207
33300,-22.566722869873
33600,-22.5682964324951
33900,-22.5843410491943
34200,-22.5825748443604
34500,-22.5563163757324
34800,-22.5500965118408
35100,-22.5527820587158
35400,-22.5732822418213
35700,-22.5704021453857
36000,-22.5742015838623
36300,-22.5657558441162
36600,-22.5639877319336
36900,-22.5711269378662
37200,-22.5983066558838
37500,-22.6023712158203
37800,-22.5939235687256
38100,-22.5966110229492
38400,-22.6148834228516
38700,-22.6543083190918
39000,-22.7104320526123
39300,-22.688362121582
39600,-22.6609897613525
39900,-22.6547698974609
40200,-22.6574554443359
40500,-22.6768417358398
40800,-22.6884346008301
41100,-22.6911201477051
41400,-22.6938076019287
41700,-22.6898136138916
42000,-22.6936130523682
42300,-22.7018661499023
42600,-22.6989860534668
42900,-22.7005596160889
43200,-22.6932258605957
43500,-22.6959133148193
43800,-22.6896934509277
44100,-22.6856994628906
44400,-22.6906127929688
44700,-22.7133388519287
45000,-22.7207431793213
45300,-22.7164840698242
45600,-22.7080383300781
45900,-22.6984786987305
46200,-22.6911468505859
46500,-22.6938323974609
46800,-22.7121047973633
47100,-22.7348308563232
47400,-22.7364025115967
47700,-22.7426948547363
48000,-22.7228507995605
48300,-22.7121772766113
48600,-22.714864730835
48900,-22.7108707427979
49200,-22.7113304138184
49500,-22.7206974029541
49800,-22.716703414917
50100,-22.7199420928955
50400,-22.7343082427979
50700,-22.7341995239258
51000,-22.7488288879395
51300,-22.7498340606689
51600,-22.759744644165
51900,-22.7496185302734
52200,-22.7280941009521
52500,-22.7190799713135
52800,-22.7189712524414
53100,-22.7210903167725
53400,-22.722095489502
53700,-22.7386856079102
54000,-22.7544288635254
54300,-22.7543201446533
54600,-22.7539482116699
54900,-22.7438201904297
55200,-22.7403717041016
55500,-22.7291316986084
55800,-22.7301368713379
56100,-22.7400493621826
56400,-22.7276954650879
56700,-22.7275867462158
57000,-22.740837097168
57300,-22.7499008178711
57600,-22.7408866882324
57900,-22.737174987793
58200,-22.7259330749512
58500,-22.7258243560791
58800,-22.7401905059814
59100,-22.7637252807617
59400,-22.7488803863525
59700,-22.7376384735107
60000,-22.7375316619873
60300,-22.7452163696289
60600,-22.7328624725342
60900,-22.7327537536621
61200,-22.7426662445068
61500,-22.7425575256348
61800,-22.7435626983643
62100,-22.7490215301514
62400,-22.7400074005127
62700,-22.7410125732422
63000,-22.7386779785156
63300,-22.7385692596436
63600,-22.7540473937988
63900,-22.7753562927246
64200,-22.7571716308594
64500,-22.7392520904541
64800,-22.7324638366699
65100,-22.7323551177979
65400,-22.7300205230713
65700,-22.7232341766357
66000,-22.7242393493652
66300,-22.7441692352295
66600,-22.745174407959
66900,-22.7450675964355
67200,-22.7516384124756
67500,-22.7426242828369
67800,-22.7425155639648
68100,-22.746862411499
68400,-22.7478675842285
68700,-22.7366256713867
69000,-22.7365188598633
69300,-22.7330703735352
69600,-22.7340755462646
69900,-22.7384204864502
70200,-22.751672744751
70500,-22.7404308319092
70800,-22.7347564697266
71100,-22.7368755340576
71400,-22.7434463500977
71700,-22.7411117553711
72000,-22.733211517334
72300,-22.7331027984619
72600,-22.735221862793
72900,-22.7262077331543
73200,-22.7260990142822
73500,-22.7426910400391
73800,-22.738130569458
74100,-22.7391357421875
74400,-22.7345733642578
74700,-22.7333526611328
75000,-22.7187728881836
75300,-22.71755027771
75600,-22.7285747528076
75900,-22.7284679412842
76200,-22.7205677032471
76500,-22.7215728759766
76800,-22.7303695678711
77100,-22.7191295623779
77400,-22.7190208435059
77700,-22.7255935668945
78000,-22.7165794372559
78300,-22.7164707183838
78600,-22.7330627441406
78900,-22.7329540252686
79200,-22.7283935546875
79500,-22.7204914093018
79800,-22.7214965820313
80100,-22.7291831970215
80400,-22.7257347106934
80700,-22.7267398834229
81000,-22.7210655212402
81300,-22.7109375
81600,-22.7119426727295
81900,-22.7251949310303
82200,-22.7128410339355
82500,-22.7127323150635
82800,-22.7259845733643
83100,-22.7191963195801
83400,-22.7202014923096
83700,-22.7223205566406
84000,-22.716646194458
84300,-22.7165374755859
84600,-22.7297897338867
84900,-22.721887588501
85200,-22.7139873504639
85500,-22.7149925231934
85800,-22.7204513549805
86100,-22.7203426361084
86400,-22.7124423980713
86700,-22.7134475708008
87000,-22.7144527435303
87300,-22.7210235595703
87600,-22.7209167480469
87900,-22.7208080291748
88200,-22.7140197753906
88500,-22.7139129638672
88800,-22.7171440124512
89100,-22.7159233093262
89400,-22.7236080169678
89700,-22.7134799957275
90000,-22.7089195251465
90300,-22.709924697876
90600,-22.7031364440918
90900,-22.7041416168213
91200,-22.718505859375
91500,-22.7206249237061
91800,-22.7194042205811
92100,-22.7181835174561
92400,-22.7069416046143
92700,-22.7068347930908
93000,-22.7011604309082
93300,-22.6988258361816
93600,-22.7020568847656
93900,-22.6997222900391
94200,-22.7040672302246
94500,-22.7128658294678
94800,-22.7194366455078
95100,-22.7093105316162
95400,-22.7092018127441
95700,-22.7180004119873
96000,-22.7178916931152
96300,-22.7088775634766
96600,-22.7087707519531
96900,-22.7142276763916
97200,-22.7052135467529
97500,-22.7039928436279
97800,-22.7049980163574
98100,-22.7048892974854
98400,-22.7070083618164
98700,-22.7091274261475
99000,-22.6989994049072
99300,-22.6988925933838
99600,-22.7121429443359
99900,-22.7031288146973
100200,-22.7028923034668
100500,-22.7070465087891
100800,-22.7067451477051
101100,-22.7053318023682
101400,-22.7050323486328
101700,-22.7125263214111
102000,-22.702205657959
102300,-22.7019062042236
102600,-22.6915874481201
102900,-22.6923999786377
103200,-22.7032318115234
103500,-22.7084999084473
103800,-22.6948394775391
104100,-22.6945400238037
104400,-22.6953525543213
104700,-22.6939392089844
105000,-22.6925258636475
105300,-22.7000198364258
105600,-22.6986064910889
105900,-22.6960792541504
106200,-22.6902141571045
106500,-22.6888008117676
106800,-22.6940670013428
107100,-22.6926536560059
107400,-22.6879005432129
107700,-22.6875991821289
108000,-22.6906394958496
108300,-22.6892261505127
108600,-22.6855869293213
108900,-22.6774940490723
109200,-22.6771945953369
109500,-22.6813468933105
109800,-22.6799335479736
110100,-22.6818599700928
110400,-22.6815605163574
110700,-22.6868267059326
111000,-22.674280166626
111300,-22.6728668212891
111600,-22.6759071350098
111900,-22.6756076812744
112200,-22.6730804443359
112500,-22.6705532073975
112800,-22.6691398620605
113100,-22.6655006408691
113400,-22.6640872955322
113700,-22.673807144165
114000,-22.6746196746826
114300,-22.6754341125488
114600,-22.6729068756104
114900,-22.672607421875
115200,-22.6778736114502
115500,-22.684253692627
115800,-22.6750469207764
116100,-22.6736335754395
116400,-22.674446105957
116700,-22.6730327606201
117000,-22.6760730743408
117300,-22.6869068145752
117600,-22.6854934692383
117900,-22.668493270874
118200,-22.6670799255371
118500,-22.6678943634033
118800,-22.675386428833
119100,-22.6739730834961
119400,-22.6681079864502
119700,-22.6589012145996
120000,-22.6574878692627
120300,-22.6583003997803
120600,-22.6568870544434
120900,-22.6632671356201
121200,-22.6729869842529
121500,-22.6615543365479
121800,-22.6612548828125
122100,-22.6509342193604
122400,-22.6517486572266
122700,-22.6570148468018
123000,-22.6667346954346
123300,-22.6519603729248
123600,-22.6516609191895
123900,-22.6502475738525
124200,-22.6499481201172
124500,-22.6474208831787
124800,-22.6471214294434
125100,-22.6590671539307
125400,-22.6632213592529
125700,-22.6629199981689
126000,-22.6503753662109
126300,-22.6467342376709
126600,-22.6464347839355
126900,-22.6439075469971
127200,-22.6436080932617
127500,-22.6566677093506
127800,-22.6563682556152
128100,-22.6471614837646
128400,-22.6468620300293
128700,-22.6432209014893
129000,-22.6418075561523
129300,-22.6515274047852
129600,-22.6389808654785
129900,-22.6386814117432
130200,-22.6439476013184
130500,-22.6380825042725
130800,-22.6377811431885
131100,-22.6397075653076
131400,-22.6394081115723
131700,-22.6480140686035
132000,-22.6365814208984
132300,-22.637393951416
132600,-22.6437740325928
132900,-22.6379089355469
133200,-22.6376075744629
133500,-22.6384220123291
133800,-22.6336688995361
134100,-22.6333675384521
134400,-22.6352939605713
134700,-22.633882522583
135000,-22.6380348205566
135300,-22.6310558319092
135600,-22.6307544708252
135900,-22.6304550170898
136200,-22.6290416717529
136500,-22.6287422180176
136800,-22.6273288726807
137100,-22.6337089538574
137400,-22.6256160736084
137700,-22.6242027282715
138000,-22.6261291503906
138300,-22.6258277893066
138600,-22.6210746765137
138900,-22.6163215637207
139200,-22.6149082183838
139500,-22.6235160827637
139800,-22.6343479156494
140100,-22.6229152679443
140400,-22.6215019226074
140700,-22.6212024688721
141000,-22.6209011077881
141300,-22.6194896697998
141600,-22.6180763244629
141900,-22.6289081573486
142200,-22.6152496337891
142500,-22.6149482727051
142800,-22.6146488189697
143100,-22.6098957061768
143400,-22.6073684692383
143700,-22.613748550415
144000,-22.6134490966797
144300,-22.6164894104004
144600,-22.6083965301514
144900,-22.6069831848145
145200,-22.6111354827881
145500,-22.6119480133057
145800,-22.6116485595703
146100,-22.6180286407471
146400,-22.606595993042
146700,-22.6062965393066
147000,-22.6082229614258
147300,-22.5990161895752
147600,-22.5976028442383
147900,-22.6073226928711
148200,-22.6148147583008
148500,-22.6022701263428
148800,-22.6019687652588
149100,-22.602783203125
149400,-22.5969161987305
149700,-22.5955028533936
150000,-22.6041088104248
150300,-22.6060352325439
150600,-22.604621887207
150900,-22.5909633636475
151200,-22.5895500183105
151500,-22.5970420837402
151800,-22.5945167541504
152100,-22.5942153930664
152400,-22.6028232574463
152700,-22.5925025939941
153000,-22.5933170318604
153300,-22.5941295623779
153600,-22.592716217041
153900,-22.5935287475586
154200,-22.604362487793
154500,-22.5907039642334
154800,-22.5892906188965
155100,-22.5956687927246
155400,-22.5953693389893
155700,-22.5828227996826
156000,-22.5814094543457
156300,-22.588903427124
156600,-22.5930557250977
156900,-22.5793972015381
157200,-22.5779838562012
157500,-22.5854759216309
157800,-22.5840625762939
158100,-22.5815372467041
158400,-22.5868034362793
158700,-22.5920696258545
159000,-22.5795230865479
159300,-22.5781097412109
159600,-22.5744705200195
159900,-22.5741710662842
160200,-22.5783233642578
160500,-22.5824756622314
160800,-22.5699310302734
161100,-22.5685176849365
161400,-22.5737838745117
161700,-22.5723705291748
162000,-22.5720710754395
162300,-22.5684299468994
162600,-22.5670166015625
162900,-22.5745105743408
163200,-22.5730972290039
163500,-22.5638904571533
163800,-22.5624771118164
164100,-22.5610637664795
164400,-22.5563106536865
164700,-22.5560111999512
165000,-22.5557117462158
165300,-22.5542984008789
165600,-22.5617904663086
165900,-22.5603771209717
166200,-22.5667572021484
166500,-22.5620040893555
166800,-22.559476852417
167100,-22.5669708251953
167400,-22.5577640533447
167700,-22.5452175140381
168000,-22.5438041687012
168300,-22.553524017334
168600,-22.5532245635986
168900,-22.5618305206299
169200,-22.5537376403809
169500,-22.5534381866455
169800,-22.5442314147949
170100,-22.542818069458
170400,-22.5491981506348
170700,-22.5500106811523
171000,-22.549711227417
171300,-22.544958114624
171600,-22.5435447692871
171900,-22.5454711914063
172200,-22.5418319702148
172500,-22.5459842681885
172800,-22.5445709228516
173100,-22.5520648956299
173400,-22.5384044647217
173700,-22.5358791351318
174000,-22.54225730896
174300,-22.5363922119141
174600,-22.5349788665771
174900,-22.5391311645508
175200,-22.547737121582
175500,-22.5329647064209
175800,-22.5293254852295
176100,-22.5334777832031
176400,-22.5354042053223
176700,-22.5351047515869
177000,-22.5370311737061
177300,-22.5356178283691
177600,-22.5353183746338
177900,-22.5327911376953
178200,-22.5336055755615
178500,-22.527738571167
178800,-22.5274391174316
179100,-22.5237979888916
179400,-22.5234985351563
179700,-22.5276527404785
180000,-22.5240116119385
180300,-22.5237121582031
180600,-22.5234127044678
180900,-22.5253391265869
181200,-22.5372848510742
181500,-22.5369853973389
181800,-22.5177593231201
182100,-22.5152320861816
182400,-22.5204982757568
182700,-22.5168590545654
183000,-22.5165596008301
183300,-22.5184860229492
183600,-22.524866104126
183900,-22.5123195648193
184200,-22.5109062194824
184500,-22.51171875
184800,-22.5114192962646
185100,-22.5111198425293
185400,-22.5074787139893
185700,-22.5060653686523
186000,-22.5013122558594
186300,-22.4998989105225
186600,-22.5018253326416
186900,-22.5026397705078
187200,-22.5012264251709
187500,-22.5098323822021
187800,-22.5028533935547
188100,-22.5014400482178
188400,-22.5011386871338
188700,-22.4974994659424
189000,-22.4994258880615
189300,-22.4969005584717
189600,-22.4965991973877
189900,-22.508544921875
190200,-22.4971122741699
190500,-22.495698928833
190800,-22.5009670257568
191100,-22.4973258972168
191400,-22.4959125518799
191700,-22.5078582763672
192000,-22.48974609375
192300,-22.4861068725586
192600,-22.4924869537354
192900,-22.4877338409424
193200,-22.4863204956055
193500,-22.4960403442383
193800,-22.4901733398438
194100,-22.4876461029053
194400,-22.4884605407715
194700,-22.485933303833
195000,-22.4878597259521
195300,-22.4842205047607
195600,-22.4861469268799
195900,-22.484733581543
196200,-22.4844341278076
196500,-22.4874725341797
196800,-22.4838333129883
197100,-22.4824199676514
197400,-22.4854602813721
197700,-22.4684600830078
198000,-22.4670467376709
198300,-22.4767665863037
198600,-22.4775810241699
198900,-22.476167678833
199200,-22.472526550293
199500,-22.4711132049561
199800,-22.4696998596191
200100,-22.4695720672607
200400,-22.469783782959
200700,-22.4677715301514
201000,-22.4646434783936
201300,-22.4615173339844
201600,-22.4639568328857
201900,-22.4485836029053
202200,-22.4476833343506
202500,-22.4523506164551
202800,-22.4514503479004
203100,-22.4605693817139
203400,-22.4719142913818
203700,-22.4699020385742
204000,-22.4779071807861
204300,-22.4758930206299
204600,-22.4694271087646
204900,-22.4607334136963
205200,-22.45871925354
205500,-22.4667263031006
205800,-22.4658260345459
206100,-22.4638118743896
206400,-22.461799621582
206700,-22.4608993530273
207000,-22.4655647277832
207300,-22.4646644592285
207600,-22.4671039581299
207900,-22.4728832244873
208200,-22.4541702270508
208500,-22.4521560668945
208800,-22.4545974731445
209100,-22.4626026153564
209400,-22.4617023468018
209700,-22.4708213806152
210000,-22.4788265228271
210300,-22.4578876495361
210600,-22.454761505127
210900,-22.4605407714844
211200,-22.4574146270752
211500,-22.4565143585205
211800,-22.4578399658203
212100,-22.4680728912354
212400,-22.4604930877686
212700,-22.4595928192139
213000,-22.4598045349121
213300,-22.4544525146484
213600,-22.4535522460938
213900,-22.4637832641602
214200,-22.4517517089844
214500,-22.4508514404297
214800,-22.4532909393311
215100,-22.4523906707764
215400,-22.4526023864746
215700,-22.458381652832
216000,-22.4563694000244
216300,-22.4632606506348
216600,-22.451229095459
216900,-22.4503288269043
217200,-22.4516544342041
217500,-22.4507541656494
217800,-22.4509677886963
218100,-22.4611988067627
218400,-22.452507019043
218700,-22.4504928588867
219000,-22.4518184661865
219300,-22.4509181976318
219600,-22.4500179290771
219900,-22.4480056762695
220200,-22.4482173919678
220500,-22.4517707824707
220800,-22.4497566223145
221100,-22.4499702453613
221400,-22.4468441009521
221700,-22.448169708252
222000,-22.4439296722412
222300,-22.441915512085
222600,-22.4476947784424
222900,-22.4412288665771
223200,-22.441442489624
223500,-22.4405422210693
223800,-22.4374141693115
224100,-22.4431934356689
224400,-22.4512004852295
224700,-22.4580936431885
225000,-22.4438323974609
225300,-22.4373664855957
225600,-22.4353523254395
225900,-22.443359375
