Trace
Swept SA
A.16.09,N9010A
544 B25 B40 EXM FS1 MPB P44 RTL ,01
Segment,0
Number of Points,10001
Sweep Time,0.002666666667
Start Frequency,0
Stop Frequency,3000000
Average Count,100
Average Type,LogPower(Video)
RBW,10000
RBW Filter,Gaussian
RBW Filter BW,3dB
VBW,100000
Sweep Type,Swept
X Axis Scale,Lin
PreAmp State,Off
PreAmp Band,Low
Trigger Source,Free
Trigger Level,1.2
Trigger Slope,Positive
Trigger Delay,0
Phase Noise Optimization,Narrow
Swept If Gain,Low
FFT If Gain,Autorange
RF Coupling,DC
FFT Width,411900
Ext Ref,10000000
Input,RF
RF Calibrator,Off
Attenuation,10
Ref Level Offset,0
External Gain,0
Trace Type,Maxhold
Detector,Peak
Trace Math,Off
Trace Math Oper1,Trace5
Trace Math Oper2,Trace6
Trace Math Offset,0
Normalize,Off
Trace Name,Trace1
X Axis Units,Hz
Y Axis Units,dBm
DATA
0,-8.46488189697266
300,-8.49828052520752
600,-8.55394458770752
900,-8.62853336334229
1200,-8.7253885269165
1500,-8.84339618682861
1800,-8.9825553894043
2100,-9.14175415039063
2400,-9.32321834564209
2700,-9.52583503723145
3000,-9.74960327148438
3300,-9.98895740509033
3600,-10.2104997634888
3900,-10.4487409591675
4200,-10.6803026199341
4500,-10.8250284194946
4800,-10.9853401184082
5100,-11.1634645462036
5400,-11.3571748733521
5700,-11.568696975708
6000,-11.7969188690186
6300,-12.0284805297852
6600,-12.1787729263306
6900,-12.3479909896851
7200,-12.5361347198486
7500,-12.7432041168213
7800,-12.9680862426758
8100,-13.2029876708984
8400,-13.3165416717529
8700,-13.4367752075195
9000,-13.5670289993286
9300,-13.7077617645264
9600,-13.857400894165
9900,-14.0170593261719
10200,-14.1867370605469
10500,-14.3675479888916
10800,-14.5572643280029
11100,-14.7592277526855
11400,-14.9745502471924
11700,-15.1932125091553
12000,-15.20703125
12300,-15.1718664169312
12600,-15.1456079483032
12900,-15.1304817199707
13200,-15.1253747940063
13500,-15.1269483566284
13800,-15.1352014541626
14100,-15.156813621521
14400,-15.1906719207764
14700,-15.2390022277832
15000,-15.3029193878174
15300,-15.3835344314575
15600,-15.3828811645508
15900,-15.3844547271729
16200,-15.3982734680176
16500,-15.4287919998169
16800,-15.4782361984253
17100,-15.5210008621216
17400,-15.5203475952148
17700,-15.5219202041626
18000,-15.5212669372559
18300,-15.5284061431885
18600,-15.5310926437378
18900,-15.5360059738159
19200,-15.5576181411743
19500,-15.595929145813
19800,-15.6030693054199
20100,-15.6035289764404
20400,-15.6128950119019
20700,-15.6322803497314
21000,-15.6193809509277
21300,-15.606481552124
21600,-15.6080551147461
21900,-15.6151943206787
22200,-15.5922756195068
22500,-15.588282585144
22800,-15.5920820236206
23100,-15.5936555862427
23400,-15.584095954895
23700,-15.5867824554443
24000,-15.5928087234497
24300,-15.5910415649414
24600,-15.5959548950195
24900,-15.6220197677612
25200,-15.6558780670166
25500,-15.6674709320068
25800,-15.6812896728516
26100,-15.6283130645752
26400,-15.5964879989624
26700,-15.5858144760132
27000,-15.5885009765625
27300,-15.5923013687134
27600,-15.5693817138672
27900,-15.5642757415771
28200,-15.569188117981
28500,-15.5919141769409
28800,-15.6313381195068
29100,-15.6384782791138
29400,-15.5910673141479
29700,-15.5648078918457
30000,-15.5608148574829
30300,-15.5635013580322
30600,-15.5851135253906
30900,-15.6267652511597
31200,-15.6695289611816
31500,-15.6844615936279
31800,-15.6637697219849
32100,-15.6519832611084
32400,-15.6301774978638
32700,-15.6272974014282
33000,-15.6288709640503
33300,-15.5836868286133
33600,-15.5607671737671
33900,-15.5300559997559
34200,-15.5127029418945
34500,-15.5109367370605
34800,-15.5191888809204
35100,-15.5485944747925
35400,-15.564640045166
35700,-15.562873840332
36000,-15.5689001083374
36300,-15.5960779190063
36600,-15.6132373809814
36900,-15.6226034164429
37200,-15.6208372116089
37500,-15.6023712158203
37800,-15.6017179489136
38100,-15.6099700927734
38400,-15.6338090896606
38700,-15.63649559021
39000,-15.6547679901123
39300,-15.6674737930298
39600,-15.6601409912109
39900,-15.6583738327026
40200,-15.6655139923096
40500,-15.6615209579468
40800,-15.66086769104
41100,-15.6680068969727
41400,-15.6974115371704
41700,-15.6833992004395
42000,-15.6671600341797
42300,-15.6631669998169
42600,-15.6680793762207
42900,-15.6896915435791
43200,-15.6723394393921
43500,-15.6694593429565
43800,-15.6754856109619
44100,-15.6970977783203
44400,-15.7020111083984
44700,-15.6946773529053
45000,-15.6929111480713
45300,-15.6844644546509
45600,-15.6804714202881
45900,-15.6853847503662
46200,-15.6914110183716
46500,-15.700777053833
46800,-15.6823110580444
47100,-15.6794309616089
47400,-15.6854572296143
47700,-15.7115230560303
48000,-15.7019634246826
48300,-15.6990833282471
48600,-15.7039966583252
48900,-15.7167024612427
49200,-15.7104825973511
49500,-15.7120552062988
49800,-15.6935901641846
50100,-15.690149307251
50400,-15.6944942474365
50700,-15.7166519165039
51000,-15.7165441513062
51300,-15.7297954559326
51600,-15.7408199310303
51900,-15.7162199020386
52200,-15.7094326019287
52500,-15.7115507125854
52800,-15.7003107070923
53100,-15.6890697479248
53400,-15.6889619827271
53700,-15.7033262252808
54000,-15.7021045684814
54300,-15.7042236328125
54600,-15.7252674102783
54900,-15.7329530715942
55200,-15.7473173141479
55500,-15.7238302230835
55800,-15.7181558609009
56100,-15.7213878631592
56400,-15.7179403305054
56700,-15.7189455032349
57000,-15.7088174819946
57300,-15.7098236083984
57600,-15.7230749130249
57900,-15.7062673568726
58200,-15.6994800567627
58500,-15.6915788650513
58800,-15.693696975708
59100,-15.7114019393921
59400,-15.707953453064
59700,-15.7122993469238
60000,-15.7266635894775
60300,-15.7042903900146
60600,-15.6975021362305
60900,-15.69850730896
61200,-15.7050790786743
61500,-15.6982917785645
61800,-15.6992969512939
62100,-15.7058687210083
62400,-15.7124404907227
62700,-15.7101058959961
63000,-15.7077713012695
63300,-15.7043237686157
63600,-15.7086687088013
63900,-15.707447052002
64200,-15.7006597518921
64500,-15.7016649246216
64800,-15.7071228027344
65100,-15.7148084640503
65400,-15.7091341018677
65700,-15.7023458480835
66000,-15.703351020813
66300,-15.7032432556152
66600,-15.7031354904175
66900,-15.7152738571167
67200,-15.7107124328613
67500,-15.7106046676636
67800,-15.7271957397461
68100,-15.7070484161377
68400,-15.7013740539551
68700,-15.7034931182861
69000,-15.7056112289429
69300,-15.7088432312012
69600,-15.6998291015625
69900,-15.6997213363647
70200,-15.7118587493896
70500,-15.7017316818237
70800,-15.7027368545532
71100,-15.7126483917236
71400,-15.7047472000122
71700,-15.7057523727417
72000,-15.7223434448242
72300,-15.7144432067871
72600,-15.7032022476196
72900,-15.7030944824219
73200,-15.7074394226074
73500,-15.6950855255127
73800,-15.6938638687134
74100,-15.7060022354126
74400,-15.7081203460693
74700,-15.7024459838867
75000,-15.702338218689
75300,-15.6966638565063
75600,-15.6976690292358
75900,-15.7031269073486
76200,-15.7108125686646
76500,-15.6995716094971
76800,-15.6994638442993
77100,-15.6949024200439
77400,-15.6959075927734
77700,-15.6957998275757
78000,-15.6968050003052
78300,-15.7067165374756
78600,-15.716628074646
78900,-15.6975946426392
79200,-15.690806388855
79500,-15.6918115615845
79800,-15.6972703933716
80100,-15.6982755661011
80400,-15.7026205062866
80700,-15.6980600357056
81000,-15.6912717819214
81300,-15.6933908462524
81600,-15.6999626159668
81900,-15.6965141296387
82200,-15.699746131897
82500,-15.7085447311401
82800,-15.6995306015015
83100,-15.700535774231
83400,-15.6926345825195
83700,-15.6891870498657
84000,-15.6901922225952
84300,-15.6867437362671
84600,-15.6877498626709
84900,-15.6998872756958
85200,-15.6919860839844
85500,-15.6929922103882
85800,-15.686203956604
86100,-15.6860961914063
86400,-15.6904411315918
86700,-15.7048063278198
87000,-15.6991310119629
87300,-15.6945705413818
87600,-15.6866693496704
87900,-15.6854486465454
88200,-15.6875667572021
88500,-15.6941385269165
88800,-15.6929168701172
89100,-15.6850166320801
89400,-15.6860218048096
89700,-15.6970462799072
90000,-15.6969385147095
90300,-15.6901502609253
90600,-15.6911554336548
90900,-15.6921615600586
91200,-15.6786937713623
91500,-15.6785860061646
91800,-15.6851577758789
92100,-15.6739168167114
92400,-15.6749219894409
92700,-15.6792669296265
93000,-15.680272102356
93300,-15.6857309341431
93600,-15.6889629364014
93900,-15.6832885742188
94200,-15.6842937469482
94500,-15.6875257492065
94800,-15.6896438598633
95100,-15.6951026916504
95400,-15.6849746704102
95700,-15.6859798431396
96000,-15.6791925430298
96300,-15.6746311187744
96600,-15.6778631210327
96900,-15.7011337280273
97200,-15.6887798309326
97500,-15.6875591278076
97800,-15.6785440444946
98100,-15.6784362792969
98400,-15.6861209869385
98700,-15.6804466247559
99000,-15.6825656890869
99300,-15.6802310943604
99600,-15.6734437942505
99900,-15.67444896698
100200,-15.6842317581177
100500,-15.6783657073975
100800,-15.6747255325317
101100,-15.6755390167236
101400,-15.6785793304443
101700,-15.6838455200195
102000,-15.6879987716675
102300,-15.6754522323608
102600,-15.6684732437134
102900,-15.669285774231
103200,-15.6689863204956
103500,-15.6608934402466
103800,-15.6605930328369
104100,-15.6758794784546
104400,-15.6711263656616
104700,-15.6719388961792
105000,-15.6671857833862
105300,-15.6691131591797
105600,-15.6610193252563
105900,-15.660719871521
106200,-15.6748924255371
106500,-15.6623458862305
106800,-15.6575927734375
107100,-15.659520149231
107400,-15.6714658737183
107700,-15.6722793579102
108000,-15.6697521209717
108300,-15.6705656051636
108600,-15.6702661514282
108900,-15.6666259765625
109200,-15.6685523986816
109500,-15.6827249526978
109800,-15.6657257080078
110100,-15.6643123626709
110400,-15.6617860794067
110700,-15.6625995635986
111000,-15.6734323501587
111300,-15.6664524078369
111600,-15.6683788299561
111900,-15.6580600738525
112200,-15.6566467285156
112500,-15.6585731506348
112800,-15.651593208313
113100,-15.6524066925049
113400,-15.6610126495361
113700,-15.6529197692871
114000,-15.653733253479
114300,-15.6567726135254
114600,-15.6553592681885
114900,-15.6561727523804
115200,-15.6603260040283
115500,-15.6500062942505
115800,-15.6508197784424
116100,-15.6538600921631
116400,-15.6557865142822
116700,-15.6554861068726
117000,-15.6529598236084
117300,-15.6537733078003
117600,-15.6467933654785
117900,-15.6409273147583
118200,-15.6428537368774
118500,-15.6436672210693
118800,-15.6455936431885
119100,-15.6519727706909
119400,-15.6683721542358
119700,-15.6613922119141
120000,-15.6488466262817
120300,-15.6385269165039
120600,-15.6382274627686
120900,-15.6457195281982
121200,-15.6487598419189
121500,-15.6484594345093
121800,-15.639253616333
122100,-15.6389532089233
122400,-15.6453332901001
122700,-15.6416931152344
123000,-15.638053894043
123300,-15.6388664245605
123600,-15.6485862731934
123900,-15.6349267959595
124200,-15.6346273422241
124500,-15.6387805938721
124800,-15.6373672485352
125100,-15.6348400115967
125400,-15.6412200927734
125700,-15.6475992202759
126000,-15.6350536346436
126300,-15.6291875839233
126600,-15.6311140060425
126900,-15.6363801956177
127200,-15.6271743774414
127500,-15.6268739700317
127800,-15.6399335861206
128100,-15.627387046814
128400,-15.6270875930786
128700,-15.6267871856689
129000,-15.625373840332
129300,-15.6250743865967
129600,-15.6381330490112
129900,-15.6456260681152
130200,-15.6252870559692
130500,-15.6216478347778
130800,-15.6213474273682
131100,-15.6255006790161
131400,-15.6240873336792
131700,-15.6249008178711
132000,-15.6279401779175
132300,-15.6176204681396
132600,-15.6173210144043
132900,-15.6203603744507
133200,-15.6200609207153
133500,-15.6208744049072
133800,-15.6194610595703
134100,-15.6135940551758
134400,-15.6166343688965
134700,-15.6129941940308
135000,-15.6104679107666
135300,-15.6157341003418
135600,-15.6176605224609
135900,-15.6173610687256
136200,-15.623740196228
136500,-15.6134214401245
136800,-15.6142339706421
137100,-15.6128206253052
137400,-15.6158609390259
137700,-15.6088809967041
138000,-15.6085815429688
138300,-15.6116209030151
138600,-15.6113214492798
138900,-15.616587638855
139200,-15.6107206344604
139500,-15.5992879867554
139800,-15.6001014709473
140100,-15.6042547225952
140400,-15.6217670440674
140700,-15.6125612258911
141000,-15.6033544540405
141300,-15.6019411087036
141600,-15.6083211898804
141900,-15.6080207824707
142200,-15.6077213287354
142500,-15.5951747894287
142800,-15.5959882736206
143100,-15.5990285873413
143400,-15.6132011413574
143700,-15.6129007339478
144000,-15.6025810241699
144300,-15.6033945083618
144600,-15.6042079925537
144900,-15.6217203140259
145200,-15.6024942398071
145500,-15.5944013595581
145800,-15.59521484375
146100,-15.5993680953979
146400,-15.594614982605
146700,-15.5932016372681
147000,-15.6029214859009
147300,-15.5903749465942
147600,-15.5900754928589
147900,-15.5797557830811
148200,-15.5794553756714
148500,-15.5925149917603
148800,-15.5944414138794
149100,-15.5930280685425
149400,-15.5927286148071
149700,-15.5946550369263
150000,-15.5865621566772
150300,-15.5862617492676
150600,-15.5848484039307
150900,-15.5845489501953
151200,-15.5853614807129
151500,-15.583948135376
151800,-15.5847616195679
152100,-15.5844621658325
152400,-15.5875015258789
152700,-15.5816354751587
153000,-15.5824489593506
153300,-15.5810356140137
153600,-15.5840749740601
153900,-15.5815486907959
154200,-15.5845880508423
154500,-15.5820617675781
154800,-15.5806484222412
155100,-15.5703287124634
155400,-15.5711421966553
155700,-15.5764083862305
156000,-15.5872411727905
156300,-15.5746955871582
156600,-15.5743951797485
156900,-15.5707559585571
157200,-15.5704555511475
157500,-15.5746088027954
157800,-15.5731954574585
158100,-15.5728960037231
158400,-15.5870685577393
158700,-15.5767488479614
159000,-15.5753355026245
159300,-15.5728092193604
159600,-15.5636024475098
159900,-15.5644159317017
160200,-15.5774755477905
160500,-15.5671558380127
160800,-15.566855430603
161100,-15.5643291473389
161400,-15.562915802002
161700,-15.5648422241211
162000,-15.5600891113281
162300,-15.5586757659912
162600,-15.5695085525513
162900,-15.5703220367432
163200,-15.5577764511108
163500,-15.5574760437012
163800,-15.5560626983643
164100,-15.5568761825562
164400,-15.5610294342041
164700,-15.549596786499
165000,-15.5504093170166
165300,-15.548996925354
165600,-15.5509233474731
165900,-15.5573024749756
166200,-15.5570030212402
166500,-15.5555896759033
166800,-15.5641956329346
167100,-15.5538759231567
167400,-15.5535764694214
167700,-15.554388999939
168000,-15.5507497787476
168300,-15.5493364334106
168600,-15.5568294525146
168900,-15.5509624481201
169200,-15.5528898239136
169500,-15.547022819519
169800,-15.5478363037109
170100,-15.5508766174316
170400,-15.5416698455811
170700,-15.5413703918457
171000,-15.5477495193481
171300,-15.54856300354
171600,-15.5426969528198
171900,-15.5401697158813
172200,-15.5409832000732
172500,-15.5529289245605
172800,-15.542610168457
173100,-15.5434226989746
173400,-15.5397834777832
173700,-15.5405969619751
174000,-15.5402965545654
174300,-15.5388832092285
174600,-15.5363569259644
174900,-15.5360565185547
175200,-15.5368700027466
175500,-15.5354566574097
175800,-15.5351572036743
176100,-15.5381965637207
176400,-15.5445766448975
176700,-15.5331430435181
177000,-15.5317306518555
177300,-15.5314302444458
177600,-15.536696434021
177900,-15.531943321228
178200,-15.5349836349487
178500,-15.5580625534058
178800,-15.5466289520264
179100,-15.5329704284668
179400,-15.5326700210571
179700,-15.5268039703369
180000,-15.5265035629272
180300,-15.5262041091919
180600,-15.5336961746216
180900,-15.5267171859741
181200,-15.527530670166
181500,-15.5272302627563
181800,-15.5191373825073
182100,-15.5199508666992
182400,-15.5285568237305
182700,-15.5182371139526
183000,-15.5179376602173
183300,-15.5198640823364
183600,-15.5217905044556
183900,-15.5259437561035
184200,-15.5133972167969
184500,-15.5130977630615
184800,-15.5150241851807
185100,-15.514723777771
185400,-15.5166501998901
185700,-15.5163507461548
186000,-15.5227298736572
186300,-15.513524055481
186600,-15.5132236480713
186900,-15.516263961792
187200,-15.5248699188232
187500,-15.5100975036621
187800,-15.5086841583252
188100,-15.5083847045898
188400,-15.5203304290771
188700,-15.521143913269
189000,-15.509711265564
189300,-15.5094108581543
189600,-15.5091104507446
189900,-15.507698059082
190200,-15.5129642486572
190500,-15.5037574768066
190800,-15.5012311935425
191100,-15.4998178482056
191400,-15.5050840377808
191700,-15.5047845840454
192000,-15.5044841766357
192300,-15.497504234314
192600,-15.4994316101074
192900,-15.4980182647705
193200,-15.4999446868896
193500,-15.4985313415527
193800,-15.5049104690552
194100,-15.4979314804077
194400,-15.4965181350708
194700,-15.5006713867188
195000,-15.4914646148682
195300,-15.4922780990601
195600,-15.493091583252
195900,-15.4861116409302
196200,-15.4880380630493
196500,-15.49107837677
196800,-15.4885520935059
197100,-15.4915914535522
197400,-15.4879512786865
197700,-15.4876518249512
198000,-15.4873514175415
198300,-15.4825983047485
198600,-15.4822988510132
198900,-15.4875650405884
199200,-15.4872646331787
199500,-15.4858512878418
199800,-15.4844379425049
200100,-15.4820823669434
200400,-15.4789562225342
200700,-15.480281829834
201000,-15.4983081817627
201300,-15.4918413162231
201600,-15.4853744506836
201900,-15.4766807556152
202200,-15.4780073165894
202500,-15.4826736450195
202800,-15.4784336090088
203100,-15.4797601699829
203400,-15.4955587387085
203700,-15.4790725708008
204000,-15.4759454727173
204300,-15.4817247390747
204600,-15.477484703064
204900,-15.4788112640381
205200,-15.4968366622925
205500,-15.5037288665771
205800,-15.4816770553589
206100,-15.4763231277466
206400,-15.4787626266479
206700,-15.4778623580933
207000,-15.4780759811401
207300,-15.4794015884399
207600,-15.4885215759277
207900,-15.4776010513306
208200,-15.4767007827759
208500,-15.4769144058228
208800,-15.472674369812
209100,-15.4717741012573
209400,-15.4764394760132
209700,-15.4766530990601
210000,-15.4768657684326
210300,-15.4781923294067
210600,-15.4717254638672
210900,-15.4719381332397
211200,-15.4766044616699
211500,-15.4924039840698
211800,-15.4792575836182
212100,-15.4794702529907
212400,-15.4763431549072
212700,-15.4765567779541
213000,-15.4745426177979
213300,-15.4736423492432
213600,-15.47385597229
213900,-15.4796352386475
214200,-15.476508140564
214500,-15.4722681045532
214800,-15.4724807739258
215100,-15.4715805053711
215400,-15.471794128418
215700,-15.4675540924072
216000,-15.4666538238525
216300,-15.4702062606812
216600,-15.4693059921265
216900,-15.469518661499
217200,-15.4708452224731
217500,-15.4688320159912
217800,-15.4679317474365
218100,-15.47705078125
218400,-15.4683570861816
218700,-15.467456817627
219000,-15.4665565490723
219300,-15.4712228775024
219600,-15.4669828414917
219900,-15.4671955108643
220200,-15.4796552658081
220500,-15.4642820358276
220800,-15.4633817672729
221100,-15.4725008010864
221400,-15.4682607650757
221700,-15.4684734344482
222000,-15.47425365448
222300,-15.4677867889404
222600,-15.4691133499146
222900,-15.4637594223022
223200,-15.4595193862915
223500,-15.4597320556641
223800,-15.4655122756958
224100,-15.4657249450684
224400,-15.4614849090576
224700,-15.4616975784302
225000,-15.4663639068604
225300,-15.4643507003784
225600,-15.4656763076782
225900,-15.4614362716675
