Trace
Swept SA
A.16.09,N9010A
544 B25 B40 EXM FS1 MPB P44 RTL ,01
Segment,0
Number of Points,10000
Sweep Time,0.0013332
Start Frequency,0
Stop Frequency,20000000
Average Count,100
Average Type,LogPower(Video)
RBW,180000
RBW Filter,Gaussian
RBW Filter BW,3dB
VBW,1800000
Sweep Type,Swept
X Axis Scale,Lin
PreAmp State,Off
PreAmp Band,Low
Trigger Source,Free
Trigger Level,1.2
Trigger Slope,Positive
Trigger Delay,0
Phase Noise Optimization,Fast
Swept If Gain,Low
FFT If Gain,Autorange
RF Coupling,DC
FFT Width,411900
Ext Ref,10000000
Input,RF
RF Calibrator,Off
Attenuation,10
Ref Level Offset,0
External Gain,0
Trace Type,Maxhold
Detector,Peak
Trace Math,Off
Trace Math Oper1,Trace5
Trace Math Oper2,Trace6
Trace Math Offset,0
Normalize,Off
Trace Name,Trace1
X Axis Units,Hz
Y Axis Units,dBm
DATA
0,-2.03440070152283
2000.200020002,-2.04101514816284
4000.400040004,-2.05130434036255
6000.600060006,-2.06600308418274
8000.800080008,-2.08290648460388
10001.00010001,-2.10579419136047
12001.200120012,-2.13906598091125
14001.400140014,-2.17380785942078
16001.600160016,-2.21222424507141
18001.800180018,-2.25505042076111
20002.00020002,-2.2986114025116
22002.200220022,-2.34731698036194
24002.400240024,-2.39822745323181
26002.600260026,-2.45354723930359
28002.800280028,-2.51033711433411
30003.00030003,-2.57227158546448
32003.200320032,-2.63494110107422
34003.400340034,-2.70201992988586
36003.600360036,-2.77056884765625
38003.800380038,-2.84426236152649
40004.00040004,-2.92016053199768
42004.200420042,-3.00046825408936
44004.400440044,-3.08445072174072
46004.600460046,-3.16916823387146
48004.800480048,-3.25903034210205
50005.00050005,-3.35033416748047
52005.200520052,-3.43266201019287
54005.400540054,-3.52013421058655
56005.600560056,-3.61054635047913
58005.800580058,-3.70242834091187
60006.00060006,-3.79871988296509
62006.200620062,-3.89795112609863
64006.400640064,-4.00085735321045
66006.600660066,-4.10523319244385
68006.800680068,-4.21181344985962
70007.00070007,-4.32206916809082
72007.200720072,-4.43526411056519
74007.400740074,-4.55286884307861
76007.600760076,-4.67120838165283
78007.800780078,-4.79322290420532
80008.00080008,-4.91964673995972
82008.200820082,-5.04607057571411
84008.400840084,-5.17763948440552
86008.600860086,-5.3114128112793
88008.800880088,-5.4481258392334
90009.00090009,-5.5892481803894
92009.200920092,-5.73184108734131
94009.400940094,-5.87810802459717
96009.600960096,-6.0280499458313
98009.800980098,-6.18093156814575
100010.0010001,-6.29338550567627
102010.201020102,-6.40162563323975
104010.401040104,-6.52456474304199
106010.601060106,-6.6629376411438
108010.801080108,-6.80865955352783
110011.00110011,-6.92057466506958
112011.201120112,-7.0457181930542
114011.401140114,-7.09442901611328
116011.601160116,-7.15269327163696
118011.801180118,-7.22492170333862
120012.00120012,-7.30596971511841
122012.201220122,-7.39216184616089
124012.401240124,-7.47173929214478
126012.601260126,-7.5050163269043
128012.801280128,-7.47288370132446
130013.00130013,-7.45912456512451
132013.201320132,-7.45638942718506
134013.401340134,-7.46761798858643
136013.601360136,-7.48987054824829
138013.801380138,-7.52829217910767
140014.00140014,-7.57700252532959
142014.201420142,-7.63747215270996
144014.401440144,-7.66560411453247
146014.601460146,-7.65551948547363
148014.801480148,-7.65572452545166
150015.00150015,-7.67209768295288
152015.201520152,-7.7105188369751
154015.401540154,-7.73791599273682
156015.601560156,-7.75355434417725
158015.801580158,-7.78830099105835
160016.00160016,-7.84068632125854
162016.201620162,-7.88204717636108
164016.401640164,-7.88004684448242
166016.601660166,-7.89495038986206
168016.801680168,-7.92896223068237
170017.00170017,-7.96591377258301
172017.201720172,-7.99257612228394
174017.401740174,-8.03540706634521
176017.601760176,-8.10028553009033
178017.801780178,-8.14605617523193
180018.00180018,-8.17786312103271
182018.201820182,-8.21481513977051
184018.401840184,-8.23265838623047
186018.601860186,-8.23580265045166
188018.801880188,-8.25952529907227
190019.00190019,-8.30456066131592
192019.201920192,-8.31137943267822
194019.401940194,-8.32187366485596
196019.601960196,-8.35147571563721
198019.801980198,-8.4023904800415
200020.0020002,-8.4040994644165
202020.202020202,-8.41727828979492
204020.402040204,-8.44809627532959
206020.602060206,-8.49361228942871
208020.802080208,-8.50826168060303
210021.00210021,-8.54275417327881
212021.202120212,-8.56622219085693
214021.402140214,-8.56543731689453
216021.602160216,-8.57567691802979
218021.802180218,-8.60208511352539
220022.00220022,-8.64466190338135
222022.202220222,-8.70340633392334
224022.402240224,-8.69600772857666
226022.602260226,-8.69742774963379
228022.802280228,-8.70913696289063
230023.00230023,-8.74068927764893
232023.202320232,-8.78400135040283
234023.402340234,-8.83907222747803
236023.602360236,-8.86695003509521
238023.802380238,-8.8455867767334
240024.00240024,-8.83892250061035
242024.202420242,-8.84034252166748
244024.402440244,-8.85352230072021
246024.602460246,-8.88066482543945
248024.802480248,-8.90780735015869
250025.00250025,-8.91069793701172
252025.202520252,-8.91211795806885
254025.402540254,-8.92309188842773
256025.602560256,-8.92745208740234
258025.802580258,-8.93181228637695
260026.00260026,-8.94572639465332
262026.202620262,-8.97213459014893
264026.402640264,-8.98016834259033
266026.602660266,-8.99261283874512
268026.802680268,-9.00285243988037
270027.00270027,-9.01823616027832
272027.202720272,-9.03802967071533
274027.402740274,-9.06590747833252
276027.602760276,-9.07320785522461
278027.802780278,-9.06874847412109
280028.00280028,-9.06575870513916
282028.202820282,-9.06644344329834
284028.402840284,-9.0715389251709
286028.602860286,-9.08545303344727
288028.802880288,-9.1023063659668
290029.00290029,-9.12357044219971
292029.202920292,-9.11911106109619
294029.402940294,-9.12126541137695
296029.602960296,-9.12856578826904
298029.802980298,-9.12631130218506
300030.0030003,-9.12623691558838
302030.203020302,-9.12750720977783
304030.403040304,-9.13392162322998
306030.603060306,-9.14180564880371
308030.803080308,-9.14895439147949
310031.00310031,-9.14581489562988
312031.203120312,-9.13900089263916
314031.403140314,-9.13659572601318
316031.603160316,-9.13786602020264
318031.803180318,-9.14428043365479
320032.00320032,-9.14187526702881
322032.203220322,-9.13726615905762
324032.403240324,-9.13559627532959
326032.603260326,-9.13539600372314
328032.803280328,-9.14107513427734
330033.00330033,-9.14895915985107
332033.203320332,-9.16051864624023
334033.403340334,-9.15443897247314
336033.603360336,-9.15203380584717
338033.803380338,-9.15183448791504
340034.00340034,-9.15310382843018
342034.203420342,-9.15878391265869
344034.403440344,-9.15858364105225
346034.603460346,-9.15470886230469
348034.803480348,-9.15156936645508
350035.00350035,-9.15063381195068
352035.203520352,-9.15410900115967
354035.403540354,-9.15464401245117
356035.603560356,-9.15076923370361
358035.803580358,-9.14983463287354
360036.00360036,-9.15110397338867
362036.203620362,-9.15457916259766
364036.403640364,-9.15511417388916
366036.603660366,-9.15858840942383
368036.803680368,-9.15103912353516
370037.00370037,-9.1471643447876
372037.203720372,-9.14549446105957
374037.403740374,-9.14088439941406
376037.603760376,-9.13701057434082
378037.803780378,-9.13607501983643
380038.00380038,-9.13734531402588
382038.203820382,-9.1415548324585
384038.403840384,-9.14870357513428
386038.603860386,-9.15952777862549
388038.803880388,-9.15785789489746
390039.00390039,-9.15324878692627
392039.203920392,-9.15157890319824
394039.403940394,-9.14917373657227
396039.603960396,-9.14897346496582
398039.803980398,-9.14877414703369
400040.0040004,-9.15225315093994
402040.204020402,-9.15888786315918
404040.404040404,-9.15670299530029
406040.604060406,-9.15304756164551
408040.804080408,-9.15086269378662
410041.00410041,-9.15088272094727
412041.204120412,-9.15384292602539
414041.404140414,-9.15974235534668
416041.604160416,-9.15388298034668
418041.804180418,-9.15316772460938
420042.00420042,-9.15171813964844
422042.204220422,-9.15320777893066
424042.404240424,-9.15616798400879
426042.604260426,-9.16133213043213
428042.804280428,-9.16576194763184
430043.00430043,-9.16725158691406
432043.204320432,-9.17021179199219
434043.404340434,-9.16949653625488
436043.604360436,-9.16951656341553
438043.804380438,-9.17027187347412
440044.00440044,-9.16735172271729
442044.204420442,-9.16443252563477
444044.404440444,-9.16151237487793
446044.604460446,-9.16226768493652
448044.804480448,-9.1644926071167
450045.00450045,-9.16451263427734
452045.204520452,-9.15718269348145
454045.404540454,-9.15279388427734
456045.604560456,-9.14987373352051
458045.804580458,-9.1506290435791
460046.00460046,-9.15138339996338
462046.204620462,-9.15507793426514
464046.404640464,-9.15215873718262
466046.604660466,-9.15217876434326
468046.804680468,-9.15366840362549
470047.00470047,-9.15662860870361
472047.204720472,-9.16399765014648
474047.404740474,-9.17136669158936
476047.604760476,-9.16771221160889
478047.804780478,-9.1669979095459
480048.00480048,-9.16701793670654
482048.204820482,-9.16850757598877
484048.404840484,-9.17220211029053
486048.604860486,-9.164137840271
488048.804880488,-9.15974807739258
490049.00490049,-9.15829849243164
492049.204920492,-9.15978813171387
494049.404940494,-9.16201305389404
496049.604960496,-9.16717720031738
498049.804980498,-9.17454719543457
500050.0050005,-9.1767749786377
502050.205020502,-9.17693519592285
504050.405040504,-9.17930030822754
506050.605060506,-9.1794605255127
508050.805080508,-9.17961978912354
510051.00510051,-9.17610549926758
512051.205120512,-9.17185592651367
514051.405140514,-9.17054653167725
516051.605160516,-9.16850185394287
518051.805180518,-9.16866111755371
520052.00520052,-9.17176151275635
522052.205220522,-9.17559623718262
524052.405240524,-9.17722606658936
526052.605260526,-9.18400001525879
528052.805280528,-9.18416023254395
530053.00530053,-9.1843204498291
532053.205320532,-9.18227577209473
534053.405340534,-9.17288112640381
536053.605360536,-9.16642665863037
538053.805380538,-9.16291236877441
540054.00540054,-9.16160297393799
542054.205420542,-9.16176223754883
544054.405440544,-9.1655969619751
546054.605460546,-9.16796207427979
548054.805480548,-9.16812229156494
550055.00550055,-9.16901683807373
552055.205520552,-9.15962314605713
554055.405540554,-9.15243339538574
556055.605560556,-9.14891910552979
558055.805580558,-9.14687442779541
560056.00560056,-9.1477689743042
562056.205620562,-9.15233898162842
564056.405640564,-9.15764331817627
566056.605660566,-9.16735744476318
568056.805680568,-9.18074607849121
570057.00570057,-9.19046115875244
572057.205720572,-9.18841552734375
574057.405740574,-9.18784141540527
576057.605760576,-9.18653106689453
578057.805780578,-9.18154621124268
580058.00580058,-9.1795015335083
582058.205820582,-9.17966175079346
584058.405840584,-9.1812915802002
586058.605860586,-9.18365669250488
588058.805880588,-9.19116592407227
590059.00590059,-9.19353103637695
592059.205920592,-9.19369125366211
594059.405940594,-9.1945858001709
596059.605960596,-9.19107151031494
598059.805980598,-9.18608665466309
600060.0060006,-9.18477725982666
602060.206020602,-9.18273258209229
604060.406040604,-9.18215751647949
606060.606060606,-9.18378734588623
608060.806080608,-9.18541717529297
610061.00610061,-9.18704700469971
612061.206120612,-9.18573665618896
614061.406140614,-9.18736743927002
616061.606160616,-9.19046688079834
618061.806180618,-9.19209671020508
620062.00620062,-9.18711185455322
622062.206220622,-9.18212795257568
624062.406240624,-9.18228721618652
626062.606260626,-9.18244743347168
628062.806280628,-9.1870174407959
630063.00630063,-9.19232177734375
632063.206320632,-9.19248199462891
634063.406340634,-9.18970203399658
636063.606360636,-9.18986225128174
638063.806380638,-9.19002246856689
640064.00640064,-9.19385719299316
642064.206420642,-9.19842624664307
644064.406440644,-9.19638156890869
646064.606460646,-9.19801139831543
648064.806480648,-9.20037651062012
650065.00650065,-9.20200634002686
652065.206520652,-9.19628715515137
654065.406540654,-9.19424247741699
656065.606560656,-9.19440269470215
658065.806580658,-9.19603252410889
660066.00660066,-9.19913196563721
662066.206620662,-9.20370197296143
664066.406640664,-9.19945240020752
666066.606660666,-9.19814205169678
668066.806680668,-9.19830226898193
670067.00670067,-9.19919681549072
672067.206720672,-9.19862270355225
674067.406740674,-9.20098686218262
676067.606760676,-9.20555686950684
678067.806780678,-9.20865631103516
680068.00680068,-9.20440673828125
682068.206820682,-9.20236206054688
684068.406840684,-9.20252227783203
686068.606860686,-9.20415210723877
688068.806880688,-9.20725154876709
690069.00690069,-9.20594215393066
692069.206920692,-9.20316219329834
694069.406940694,-9.20185279846191
696069.606960696,-9.19392871856689
698069.806980698,-9.18967914581299
700070.0070007,-9.1891040802002
702070.207020702,-9.18926429748535
704070.407040704,-9.19162845611572
706070.607060706,-9.19840335845947
708070.807080708,-9.20591259002686
710071.00710071,-9.21415710449219
712071.207120712,-9.21211242675781
714071.407140714,-9.20639228820801
716071.607160716,-9.20287799835205
718071.807180718,-9.20083332061768
720072.00720072,-9.20172786712646
722072.207220722,-9.20188808441162
724072.407240724,-9.19837379455566
726072.607260726,-9.19926834106445
728072.807280728,-9.20016384124756
730073.00730073,-9.2003231048584
732073.207320732,-9.20048332214355
734073.407340734,-9.20211315155029
736073.607360736,-9.20080375671387
738073.807380738,-9.20096397399902
740074.00740074,-9.20479869842529
742074.207420742,-9.21010303497314
744074.407440744,-9.21246814727783
746074.607460746,-9.20821857452393
748074.807480748,-9.20764350891113
750075.00750075,-9.2100076675415
752075.207520752,-9.21457767486572
754075.407540754,-9.21473789215088
756075.607560756,-9.21636772155762
758075.807580758,-9.21285343170166
760076.00760076,-9.21154308319092
762076.207620762,-9.21170330047607
764076.407640764,-9.21480274200439
766076.607660766,-9.21496295928955
768076.807680768,-9.21512317657471
770077.00770077,-9.21528339385986
772077.207720772,-9.21470832824707
774077.407740774,-9.21119403839111
776077.607760776,-9.20988368988037
778077.807780778,-9.21151351928711
780078.00780078,-9.21461296081543
782078.207820782,-9.22212314605713
784078.407840784,-9.22963237762451
786078.607860786,-9.22758769989014
788078.807880788,-9.22554302215576
790079.00790079,-9.2271728515625
792079.207920792,-9.22806739807129
794079.407940794,-9.23263740539551
796079.607960796,-9.22544765472412
798079.807980798,-9.22193336486816
800080.0080008,-9.21840381622314
802080.208020802,-9.21525382995605
804080.408040804,-9.21210384368896
806080.608060806,-9.21115970611572
808080.808080808,-9.21168422698975
810081.00810081,-9.21220874786377
812081.208120812,-9.20979404449463
814081.408140814,-9.20737934112549
816081.608160816,-9.20716953277588
818081.808180818,-9.21063423156738
820082.00820082,-9.21556854248047
822082.208220822,-9.22050285339355
824082.408240824,-9.21808815002441
826082.608260826,-9.2178783416748
828082.808280828,-9.21987342834473
830083.00830083,-9.22333812713623
832083.208320832,-9.21577835083008
834083.408340834,-9.21042442321777
836083.608360836,-9.20800876617432
838083.808380838,-9.20779895782471
840084.00840084,-9.21126365661621
842084.208420842,-9.21546363830566
844084.408440844,-9.21451854705811
846084.608460846,-9.21063423156738
848084.808480848,-9.20748424530029
850085.00850085,-9.20653915405273
852085.208520852,-9.20632934570313
854085.408540854,-9.20832443237305
856085.608560856,-9.20811367034912
858085.808580858,-9.20349407196045
860086.00860086,-9.20254898071289
862086.208620862,-9.20233917236328
864086.408640864,-9.20580387115479
866086.608660866,-9.21220874786377
868086.808680868,-9.21640777587891
870087.00870087,-9.21987247467041
872087.208720872,-9.21672344207764
874087.408740874,-9.21577835083008
876087.608760876,-9.21556854248047
878087.808780878,-9.21903324127197
880088.00880088,-9.22249698638916
882088.208820882,-9.21420288085938
884088.408840884,-9.20737838745117
886088.608860886,-9.20349407196045
888088.808880888,-9.20254898071289
890089.00890089,-9.20380878448486
892089.208920892,-9.20800876617432
894089.408940894,-9.20706367492676
896089.608960896,-9.20464897155762
898089.808980898,-9.20443916320801
900090.0090009,-9.20643329620361
902090.209020902,-9.20916366577148
904090.409040904,-9.21336269378662
906090.609060906,-9.21388816833496
908090.809080908,-9.20853328704834
910091.00910091,-9.20685386657715
912091.209120912,-9.2095832824707
914091.409140914,-9.21378326416016
916091.609160916,-9.21430778503418
918091.809180918,-9.20527839660645
920092.00920092,-9.20065879821777
922092.209220922,-9.19677448272705
924092.409240924,-9.19582939147949
926092.609260926,-9.19782447814941
928092.809280928,-9.20202350616455
930093.00930093,-9.20916271209717
932093.209320932,-9.21703720092773
934093.409340934,-9.21609210968018
936093.609360936,-9.21735191345215
938093.809380938,-9.21934700012207
940094.00940094,-9.22134208679199
942094.209420942,-9.22260189056396
944094.409440944,-9.21651268005371
946094.609460946,-9.2148323059082
948094.809480948,-9.21535682678223
950095.00950095,-9.21735191345215
952095.209520952,-9.22228622436523
954095.409540954,-9.23089599609375
956095.609560956,-9.22921562194824
958095.809580958,-9.22753620147705
960096.00960096,-9.22879600524902
962096.209620962,-9.23079109191895
964096.409640964,-9.23793029785156
966096.609660966,-9.24800968170166
968096.809680968,-9.25588321685791
970097.00970097,-9.25861358642578
972097.209720972,-9.25840282440186
974097.409740974,-9.26186752319336
976097.609760976,-9.26900768280029
978097.809780978,-9.27908611297607
980098.00980098,-9.28990077972412
982098.209820982,-9.30218410491943
984098.409840984,-9.30785369873047
986098.609860986,-9.31058406829834
988098.809880988,-9.31772327423096
990099.00990099,-9.32706737518311
992099.209920992,-9.33861637115479
994099.409940994,-9.35530948638916
996099.609960996,-9.37273788452148
998099.809980998,-9.39090156555176
1000100.010001,-9.4105396270752
1002100.210021,-9.42733764648438
1004100.410041,-9.44192981719971
1006100.61006101,-9.45652294158936
1008100.81008101,-9.47479057312012
1010101.01010101,-9.49085330963135
1012101.21012101,-9.50618076324463
1014101.41014101,-9.52444839477539
1016101.61016102,-9.53830623626709
1018101.81018102,-9.54922389984131
1020102.01020102,-9.56234645843506
1022102.21022102,-9.57693958282471
1024102.41024102,-9.597412109375
1026102.61026103,-9.61788368225098
1028102.81028103,-9.64276599884033
1030103.01030103,-9.66764736175537
1032103.21032103,-9.68297576904297
1034103.41034103,-9.6975679397583
1036103.61036104,-9.69893169403076
1038103.81038104,-9.7032356262207
1040104.01040104,-9.7001895904541
1042104.21042104,-9.69787883758545
1044104.41044104,-9.69703769683838
1046104.61046105,-9.69840240478516
1048104.81048105,-9.70050048828125
1050105.01050105,-9.6981897354126
1052105.21052105,-9.68558979034424
1054105.41054105,-9.67593002319336
1056105.61056106,-9.66627025604248
1058105.81058106,-9.66248893737793
1060106.01060106,-9.66091346740723
1062106.21062106,-9.66080760955811
1064106.41064106,-9.6629056930542
1066106.61066107,-9.66941452026367
1068106.81068107,-9.66636848449707
1070107.01070107,-9.65817832946777
1072107.21072107,-9.65292835235596
1074107.41074107,-9.64988231658936
