Trace
Swept SA
A.16.09,N9010A
544 B25 B40 EXM FS1 MPB P44 RTL ,01
Segment,0
Number of Points,10000
Sweep Time,0.0026664
Start Frequency,0
Stop Frequency,10000000
Average Count,100
Average Type,LogPower(Video)
RBW,9100
RBW Filter,Gaussian
RBW Filter BW,3dB
VBW,91000
Sweep Type,Swept
X Axis Scale,Lin
PreAmp State,Off
PreAmp Band,Low
Trigger Source,Free
Trigger Level,1.2
Trigger Slope,Positive
Trigger Delay,0
Phase Noise Optimization,Narrow
Swept If Gain,Low
FFT If Gain,Autorange
RF Coupling,DC
FFT Width,411900
Ext Ref,10000000
Input,RF
RF Calibrator,Off
Attenuation,10
Ref Level Offset,0
External Gain,0
Trace Type,Maxhold
Detector,Peak
Trace Math,Off
Trace Math Oper1,Trace5
Trace Math Oper2,Trace6
Trace Math Offset,0
Normalize,Off
Trace Name,Trace1
X Axis Units,Hz
Y Axis Units,dBm
DATA
0,-3.05863547325134
1000.100010001,-3.4934778213501
2000.200020002,-4.18365812301636
3000.300030003,-5.13877582550049
4000.400040004,-6.18508529663086
5000.500050005,-7.03269195556641
6000.600060006,-7.26787185668945
7000.700070007,-7.62784051895142
8000.800080008,-8.02620601654053
9000.900090009,-8.25275135040283
10001.00010001,-8.57284832000732
11001.100110011,-8.58673286437988
12001.200120012,-8.77436065673828
13001.300130013,-8.85927867889404
14001.400140014,-8.87796211242676
15001.500150015,-8.98783683776855
16001.600160016,-9.02021503448486
17001.700170017,-9.00696563720703
18001.800180018,-8.993971824646
19001.900190019,-9.02417373657227
20002.00020002,-9.02845859527588
21002.100210021,-9.01450443267822
22002.200220022,-8.99479103088379
23002.300230023,-9.02979278564453
24002.400240024,-9.02831745147705
25002.500250025,-9.04053688049316
26002.600260026,-9.03138256072998
27002.700270027,-9.01333332061768
28002.800280028,-9.01377868652344
29002.900290029,-9.03822135925293
30003.00030003,-9.0751428604126
31003.100310031,-9.09984111785889
32003.200320032,-9.11154937744141
33003.300330033,-9.13983249664307
34003.400340034,-9.09420108795166
35003.500350035,-9.1080846786499
36003.600360036,-9.09701061248779
37003.700370037,-9.09745502471924
38003.800380038,-9.12381839752197
39003.900390039,-9.11299896240234
40004.00040004,-9.12688255310059
41004.100410041,-9.1510705947876
42004.200420042,-9.14959526062012
43004.300430043,-9.16635894775391
44004.400440044,-9.1488208770752
45004.500450045,-9.15982437133789
46004.600460046,-9.17249298095703
47004.700470047,-9.18637657165527
48004.800480048,-9.18586158752441
49004.900490049,-9.17888259887695
50005.00050005,-9.1783390045166
51005.100510051,-9.1978816986084
52005.200520052,-9.20328140258789
53005.300530053,-9.18301868438721
54005.400540054,-9.17593955993652
55005.500550055,-9.18588256835938
56005.600560056,-9.18481826782227
57005.700570057,-9.18804264068604
58005.800580058,-9.18793773651123
59005.900590059,-9.1834831237793
60006.00060006,-9.16417980194092
61006.100610061,-9.16574001312256
62006.200620062,-9.19033813476563
63006.300630063,-9.20316123962402
64006.400640064,-9.18648242950439
65006.500650065,-9.17869853973389
66006.600660066,-9.17065906524658
67006.700670067,-9.1846981048584
68006.800680068,-9.18337821960449
69006.900690069,-9.18973731994629
70007.00070007,-9.17785835266113
71007.100710071,-9.17941856384277
72007.200720072,-9.18456172943115
73007.300730073,-9.18900203704834
74007.400740074,-9.17257881164551
75007.500750075,-9.1712589263916
76007.600760076,-9.1785774230957
77007.700770077,-9.17245864868164
78007.800780078,-9.18528175354004
79007.900790079,-9.17077827453613
80008.00080008,-9.18289756774902
81008.100810081,-9.18996143341064
82008.200820082,-9.19632053375244
83008.300830083,-9.17029857635498
84008.400840084,-9.17928218841553
85008.500850085,-9.17533779144287
86008.600860086,-9.16729831695557
87008.700870087,-9.16789817810059
88008.800880088,-9.16465854644775
89008.900890089,-9.18228149414063
90009.00090009,-9.16393852233887
91009.100910091,-9.16549777984619
92009.200920092,-9.18529605865479
93009.300930093,-9.1647777557373
94009.400940094,-9.16633796691895
95009.500950095,-9.16021823883057
96009.600960096,-9.16753768920898
97009.700970097,-9.17748165130615
98009.800980098,-9.18192100524902
99009.900990099,-9.15973854064941
100010.0010001,-9.16513156890869
101010.101010101,-9.15933132171631
102010.201020102,-9.17727470397949
103010.301030103,-9.17723369598389
104010.401040104,-9.15537166595459
105010.501050105,-9.15437126159668
106010.601060106,-9.15433120727539
107010.701070107,-9.15333080291748
108010.801080108,-9.17319393157959
109010.901090109,-9.1532506942749
110011.00110011,-9.14937114715576
111011.101110111,-9.1454906463623
112011.201120112,-9.14737033843994
113011.301130113,-9.14253044128418
114011.401140114,-9.14249038696289
115011.501150115,-9.1556339263916
116011.601160116,-9.13569068908691
117011.701170117,-9.16035270690918
118011.801180118,-9.13753032684326
119011.901190119,-9.1535530090332
120012.00120012,-9.14871311187744
121012.101210121,-9.14867305755615
122012.201220122,-9.14863300323486
123012.301230123,-9.1296501159668
124012.401240124,-9.14496898651123
125012.501250125,-9.13052940368652
126012.601260126,-9.14751243591309
127012.701270127,-9.15611171722412
128012.801280128,-9.12081050872803
129012.901290129,-9.12460994720459
130013.00130013,-9.12648963928223
131013.101310131,-9.14347171783447
132013.201320132,-9.1235294342041
133013.301330133,-9.11772918701172
134013.401340134,-9.11384963989258
135013.501350135,-9.12532806396484
136013.601360136,-9.11376953125
137013.701370137,-9.11468887329102
138013.801380138,-9.11464881896973
139013.901390139,-9.11268901824951
140014.00140014,-9.14503002166748
141014.101410141,-9.12291240692139
142014.201420142,-9.10776901245117
143014.301430143,-9.12187194824219
144014.401440144,-9.1429500579834
145014.501450145,-9.10380840301514
146014.601460146,-9.099928855896
147014.701470147,-9.13323020935059
148014.801480148,-9.11687088012695
149014.901490149,-9.13315010070801
150015.00150015,-9.09208869934082
151015.101510151,-9.09588813781738
152015.201520152,-9.1167106628418
153015.301530153,-9.10899066925049
154015.401540154,-9.11592578887939
155015.501550155,-9.08996772766113
156015.601560156,-9.0870475769043
157015.701570157,-9.10403060913086
158015.801580158,-9.10111045837402
159015.901590159,-9.119309425354
160016.00160016,-9.08496761322021
161016.101610161,-9.10002994537354
162016.201620162,-9.09135055541992
163016.301630163,-9.07812786102295
164016.401640164,-9.07808685302734
165016.501650165,-9.09123039245605
166016.601660166,-9.07512760162354
167016.701670167,-9.10170936584473
168016.801680168,-9.07120704650879
169016.901690169,-9.06924724578857
170017.00170017,-9.08335018157959
171017.101710171,-9.11690711975098
172017.201720172,-9.06336688995361
173017.301730173,-9.0614070892334
174017.401740174,-9.08510971069336
175017.501750175,-9.07546997070313
176017.601760176,-9.08720397949219
177017.701770177,-9.05644702911377
178017.801780178,-9.05832672119141
179017.901790179,-9.05252647399902
180018.00180018,-9.07046985626221
181018.101810181,-9.05916595458984
182018.201820182,-9.04952621459961
183018.301830183,-9.06554985046387
184018.401840184,-9.04464626312256
185018.501850185,-9.07218837738037
186018.601860186,-9.07694816589355
187018.701870187,-9.06250858306885
188018.801880188,-9.03968620300293
189018.901890189,-9.03868579864502
190019.00190019,-9.05374908447266
191019.101910191,-9.03764629364014
192019.201920192,-9.03280639648438
193019.301930193,-9.03276634216309
194019.401940194,-9.03080558776855
195019.501950195,-9.07300186157227
196019.601960196,-9.0458288192749
197019.701970197,-9.04386901855469
198019.801980198,-9.02872562408447
199019.901990199,-9.08340072631836
200020.0020002,-9.04570198059082
201020.102010201,-9.02363014221191
202020.202020202,-9.02433967590332
203020.302030203,-9.06031131744385
204020.402040204,-9.08623504638672
205020.502050205,-9.02647018432617
206020.602060206,-9.02334022521973
207020.702070207,-9.02405071258545
208020.802080208,-9.06674194335938
209020.902090209,-9.05138874053955
210021.00210021,-9.0261812210083
211021.102110211,-9.0259313583374
212021.202120212,-9.04558372497559
213021.302130213,-9.07125186920166
214021.402140214,-9.04220485687256
215021.502150215,-9.02781105041504
216021.602160216,-9.02372169494629
217021.702170217,-9.07338809967041
218021.802180218,-9.04312515258789
219021.902190219,-9.03065204620361
220022.00220022,-9.04000091552734
221022.102210221,-9.05773448944092
222022.202220222,-9.09517669677734
223022.302230223,-9.03349208831787
224022.402240224,-9.03420257568359
225022.502250225,-9.03203296661377
226022.602260226,-9.0279426574707
227022.702270227,-9.04279613494873
228022.802280228,-9.02840328216553
229022.902290229,-9.02719306945801
230023.00230023,-9.03846263885498
231023.102310231,-9.03149318695068
232023.202320232,-9.03508281707764
233023.302330233,-9.03291320800781
234023.402340234,-9.02978420257568
235023.502350235,-9.04559707641602
236023.602360236,-9.02928447723389
237023.702370237,-9.04989719390869
238023.802380238,-9.03262424468994
239023.902390239,-9.05419731140137
240024.00240024,-9.04556369781494
241024.102410241,-9.02611541748047
242024.202420242,-9.04960823059082
243024.302430243,-9.06401252746582
244024.402440244,-9.0340051651001
245024.502450245,-9.04501914978027
246024.602460246,-9.0335054397583
247024.702470247,-9.0464391708374
248024.802480248,-9.02916622161865
249024.902490249,-9.02987575531006
250025.00250025,-9.03442573547363
251025.102510251,-9.0312967300415
252025.202520252,-9.03008651733398
253025.302530253,-9.03079700469971
254025.402540254,-9.03822612762451
255025.502550255,-9.03125667572021
256025.602560256,-9.04994964599609
257025.702570257,-9.0365161895752
258025.802580258,-9.04586601257324
259025.902590259,-9.03409671783447
260026.00260026,-9.03288745880127
261026.102610261,-9.03167724609375
262026.202620262,-9.03526782989502
263026.302630263,-9.0482006072998
264026.402640264,-9.05108642578125
265026.502650265,-9.0335578918457
266026.602660266,-9.03426837921143
267026.702670267,-9.0320987701416
268026.802680268,-9.08342838287354
269026.902690269,-9.03639793395996
270027.00270027,-9.03326892852783
271027.102710271,-9.03781890869141
272027.202720272,-9.03372859954834
273027.302730273,-9.04858207702637
274027.402740274,-9.03514957427979
275027.502750275,-9.03585910797119
276027.602760276,-9.06344699859619
277027.702770277,-9.05238246917725
278027.802780278,-9.04541301727295
279027.902790279,-9.03102016448975
280028.00280028,-9.03077030181885
281028.102810281,-9.05618286132813
282028.202820282,-9.0540132522583
283028.302830283,-9.05472278594971
284028.402840284,-9.03169059753418
285028.502850285,-9.05543899536133
286028.602860286,-9.03599071502686
287028.702870287,-9.06524276733398
288028.802880288,-9.05059432983398
289028.902890289,-9.03236103057861
290029.00290029,-9.03691101074219
291029.102910291,-9.02994155883789
292029.202920292,-9.08415222167969
293029.302930293,-9.05318450927734
294029.402940294,-9.03783130645752
295029.502950295,-9.04814052581787
296029.602960296,-9.03157234191895
297029.702970297,-9.08962249755859
298029.802980298,-9.05097579956055
299029.902990299,-9.05552577972412
300030.0030003,-9.03342819213867
301030.103010301,-9.04004764556885
302030.203020302,-9.06849002838135
303030.303030303,-9.03120899200439
304030.403040304,-9.0330286026001
305030.503050305,-9.03100872039795
306030.603060306,-9.03474807739258
307030.703070307,-9.08744430541992
308030.803080308,-9.02974891662598
309030.903090309,-9.0258092880249
310031.00310031,-9.02954864501953
311031.103110311,-9.04551219940186
312031.203120312,-9.02742862701416
313031.303130313,-9.02540874481201
314031.403140314,-9.02434921264648
315031.503150315,-9.03647232055664
316031.603160316,-9.03925228118896
317031.703170317,-9.04420757293701
318031.803180318,-9.01723003387451
319031.903190319,-9.03799247741699
320032.00320032,-9.03693294525146
321032.103210321,-9.03491306304932
322032.203220322,-9.0149097442627
323032.303230323,-9.01960945129395
324032.403240324,-9.0307731628418
325032.503250325,-9.01269054412842
326032.603260326,-9.0337085723877
327032.703270327,-9.01249027252197
328032.803280328,-9.0095100402832
329032.903290329,-9.03411293029785
330033.00330033,-9.00739097595215
331033.103310331,-9.02815341949463
332033.203320332,-9.02517318725586
333033.303330333,-9.02699375152588
334033.403340334,-9.00603103637695
335033.503350335,-9.00593090057373
336033.603360336,-9.00679016113281
337033.703370337,-9.00861072540283
338033.803380338,-9.04377174377441
339033.903390339,-9.00649070739746
340034.00340034,-9.01957416534424
341034.103410341,-8.99765110015869
342034.203420342,-9.00331115722656
343034.303430343,-9.01472949981689
344034.403440344,-9.0021505355835
345034.503450345,-9.00493049621582
346034.603460346,-8.99715137481689
347034.703470347,-8.99417114257813
348034.803480348,-8.99407196044922
349034.903490349,-8.99589157104492
350035.00350035,-9.009934425354
351035.103510351,-8.99185180664063
352035.203520352,-9.0061502456665
353035.303530353,-8.99165153503418
354035.403540354,-9.00569534301758
355035.503550355,-9.00751495361328
356035.603560356,-8.99519157409668
357035.703570357,-8.99317169189453
358035.803580358,-8.98827171325684
359035.903590359,-8.98721218109131
360036.00360036,-9.00055122375488
361036.103610361,-8.98413181304932
362036.203620362,-8.99267196655273
363036.303630363,-8.98201274871826
364036.403640364,-8.9998950958252
365036.503650365,-8.99787521362305
366036.603660366,-8.9958553314209
367036.703670367,-8.97969245910645
368036.803680368,-8.98151206970215
369036.903690369,-8.9785327911377
370037.00370037,-8.97651290893555
371037.103710371,-8.9754524230957
372037.203720372,-8.98591232299805
373037.303730373,-9.06714916229248
374037.403740374,-8.97323322296143
375037.503750375,-8.9731330871582
376037.603760376,-8.97303295135498
377037.703770377,-8.98803615570068
378037.803780378,-8.96803379058838
379037.903790379,-8.97369289398193
380038.00380038,-8.96783351898193
381038.103810381,-8.97253322601318
382038.203820382,-8.98561668395996
383038.303830383,-8.98071670532227
384038.403840384,-8.98157691955566
385038.503850385,-8.98051643371582
386038.603860386,-8.99577522277832
387038.703870387,-8.96233367919922
388038.803880388,-8.96127414703369
389038.903890389,-8.96597385406494
390039.00390039,-8.96299362182617
391039.103910391,-8.99047565460205
392039.203920392,-8.95799446105957
393039.303930393,-8.9617338180542
394039.403940394,-8.95779418945313
395039.503950395,-8.95865440368652
396039.603960396,-8.96981716156006
397039.703970397,-8.95653438568115
398039.803980398,-8.95259475708008
399039.903990399,-8.95441436767578
400040.0040004,-8.97422122955322
401040.104010401,-8.96655178070068
402040.204020402,-8.98000144958496
403040.304030403,-8.96561241149902
404040.404040404,-8.96466255187988
405040.504050405,-8.94572925567627
406040.604060406,-8.94381999969482
407040.704070407,-8.94478988647461
408040.804080408,-8.96182250976563
409040.904090409,-8.94289016723633
410041.00410041,-8.94097995758057
411041.104110411,-8.96281242370605
412041.204120412,-8.94388008117676
413041.304130413,-9.00340461730957
414041.404140414,-8.93622016906738
415041.504150415,-8.93335056304932
416041.604160416,-8.9400806427002
417041.704170417,-8.95807266235352
418041.804180418,-8.958083152771
419041.904190419,-8.93339061737061
420042.00420042,-8.93532085418701
421042.104210421,-8.93149089813232
422042.204220422,-8.94685935974121
423042.304230423,-8.94949436187744
424042.404240424,-8.95238399505615
425042.504250425,-8.92769145965576
426042.604260426,-8.93346118927002
427042.704270427,-8.92867088317871
428042.804280428,-8.94090461730957
429042.904290429,-8.98123168945313
430043.00430043,-8.93158149719238
431043.104310431,-8.92583179473877
432043.204320432,-8.92392158508301
433043.304330433,-8.9457540512085
434043.404340434,-8.9268217086792
435043.504350435,-8.92395210266113
436043.604360436,-8.92588138580322
437043.704370437,-8.92013168334961
438043.804380438,-8.93908500671387
439043.904390439,-8.91823196411133
440044.00440044,-8.93430519104004
441044.104410441,-8.93239593505859
442044.204420442,-8.93266105651855
443044.304430443,-8.91731262207031
444044.404440444,-8.91732215881348
445044.504450445,-8.93051528930664
446044.604460446,-8.93724536895752
447044.704470447,-8.93341541290283
448044.804480448,-8.91640281677246
449044.904490449,-8.91257286071777
450045.00450045,-8.92576599121094
451045.104510451,-8.92577648162842
452045.204520452,-8.96443843841553
453045.304530453,-8.90781307220459
454045.404540454,-8.90878295898438
455045.504550455,-8.92581653594971
456045.604560456,-8.95270347595215
457045.704570457,-8.9097728729248
458045.804580458,-8.90306377410889
459045.904590459,-8.92105674743652
460046.00460046,-8.92298698425293
461046.104610461,-8.97387218475342
462046.204620462,-8.90310382843018
463046.304630463,-8.90887355804443
464046.404640464,-8.90312385559082
465046.504650465,-8.8964147567749
466046.604660466,-8.91632747650146
467046.704670467,-8.90411376953125
468046.804680468,-8.89932441711426
469046.904690469,-8.91949272155762
470047.00470047,-8.89646434783936
471047.104710471,-8.91349792480469
472047.204720472,-8.89744472503662
473047.304730473,-8.89649486541748
474047.404740474,-8.8936243057251
475047.504750475,-8.89363479614258
476047.604760476,-8.89460468292236
477047.704770477,-8.88885498046875
478047.804780478,-8.89270496368408
479047.904790479,-8.88983535766602
480048.00480048,-8.90590858459473
481048.104810481,-8.91551780700684
482048.204820482,-8.88986492156982
483048.304830483,-8.88795566558838
484048.404840484,-8.90140438079834
485048.504850485,-8.91843700408936
486048.604860486,-8.96189880371094
487048.704870487,-8.88511562347412
488048.804880488,-8.89926910400391
489048.904890489,-8.88321590423584
490049.00490049,-8.89352893829346
491049.104910491,-8.89929866790771
492049.204920492,-8.88420581817627
493049.304930493,-8.88709545135498
494049.404940494,-8.87942600250244
495049.504950495,-8.9204568862915
496049.604960496,-8.87560653686523
497049.704970497,-8.8823356628418
498049.804980498,-8.89578437805176
499049.904990499,-8.87851619720459
500050.0050005,-8.87277030944824
501050.105010501,-8.88148975372314
502050.205020502,-8.88899326324463
503050.305030503,-8.87109088897705
504050.405040504,-8.88173007965088
505050.505050505,-8.87317085266113
506050.605060506,-8.87133026123047
507050.705070507,-8.8884334564209
508050.805080508,-8.86861038208008
509050.905090509,-8.86773109436035
510051.00510051,-8.86877059936523
511051.105110511,-8.86693096160889
512051.205120512,-8.88115406036377
513051.305130513,-8.90427207946777
514051.405140514,-8.88035488128662
515051.505150515,-8.8739709854126
516051.605160516,-8.86541175842285
517051.705170517,-8.87221050262451
518051.805180518,-8.88067436218262
519051.905190519,-8.86565113067627
520052.00520052,-8.86285209655762
521052.105210521,-8.86293125152588
522052.205220522,-8.88003444671631
523052.305230523,-8.88107490539551
524052.405240524,-8.89459323883057
525052.505250525,-8.85941219329834
526052.605260526,-8.86333179473877
527052.705270527,-8.87563514709473
528052.805280528,-8.861572265625
529052.905290529,-8.85397243499756
530053.00530053,-8.85693264007568
531053.105310531,-8.87211513519287
532053.205320532,-8.87411499023438
533053.305330533,-8.85237312316895
534053.405340534,-8.8505334854126
535053.505350535,-8.87147521972656
536053.605360536,-8.85357284545898
537053.705370537,-8.86805152893066
538053.805380538,-8.84989356994629
